 #p(MeV) \t \delta f_\\nu \t \delta f_\\nubar
  4.1715749854435630E-01  9.9232094386023983E-02  1.8339192812741468E-06
  4.2131351396581962E-01  9.8984953461848504E-02  1.8154127797695628E-06
  4.2551093452621397E-01  9.8751842507725257E-02  1.7970577884710931E-06
  4.2975017273255822E-01  9.8540993166062948E-02  1.7788538359823056E-06
  4.3403164520155435E-01  9.8364795603095079E-02  1.7608004440725389E-06
  4.3835577270053294E-01  9.8146858054493399E-02  1.7428971298676615E-06
  4.4272298018880291E-01  9.7919921045395597E-02  1.7251434034996537E-06
  4.4713369685941584E-01  9.7642736209049022E-02  1.7075387765251259E-06
  4.5158835618134591E-01  9.7402964689593335E-02  1.6900827760036140E-06
  4.5608739594208825E-01  9.7159750961029967E-02  1.6727749142770411E-06
  4.6063125829068469E-01  9.6962940005768633E-02  1.6556146091672615E-06
  4.6522038978117514E-01  9.6748946961003612E-02  1.6386010981972395E-06
  4.6985524141648399E-01  9.6525243712935013E-02  1.6217333866057872E-06
  4.7453626869274340E-01  9.6288566891893565E-02  1.6050102404454432E-06
  4.7926393164405645E-01  9.6046501647899241E-02  1.5884302566264708E-06
  4.8403869488770956E-01  9.5794037739571361E-02  1.5719920075198521E-06
  4.8886102766983125E-01  9.5580461784365203E-02  1.5556940796391296E-06
  4.9373140391150894E-01  9.5346983813075811E-02  1.5395350727116136E-06
  4.9865030225536494E-01  9.5118909505393714E-02  1.5235136046923718E-06
  5.0361820611259411E-01  9.4905148779958648E-02  1.5076283139765806E-06
  5.0863560371047301E-01  9.4703857151524212E-02  1.4918778328192373E-06
  5.1370298814034021E-01  9.4471621086936894E-02  1.4762607699464598E-06
  5.1882085740605577E-01  9.4285768405813930E-02  1.4607757435326993E-06
  5.2398971447294407E-01  9.4068973275595949E-02  1.4454214505638815E-06
  5.2921006731722120E-01  9.3837069557324765E-02  1.4301967334585459E-06
  5.3448242897592013E-01  9.3603889611941465E-02  1.4151006171782744E-06
  5.3980731759730716E-01  9.3397343130552285E-02  1.4001322967744568E-06
  5.4518525649180483E-01  9.3170870009864876E-02  1.3852910324973294E-06
  5.5061677418342192E-01  9.2941681009011359E-02  1.3705760910364644E-06
  5.5610240446169257E-01  9.2731394869036268E-02  1.3559867437559863E-06
  5.6164268643413784E-01  9.2517336746237369E-02  1.3415222640623830E-06
  5.6723816457924459E-01  9.2297678004262404E-02  1.3271819193785824E-06
  5.7288938879997642E-01  9.2077113694961701E-02  1.3129649855942115E-06
  5.7859691447781647E-01  9.1852461530128313E-02  1.2988707807890811E-06
  5.8436130252734608E-01  9.1627214258830511E-02  1.2848986795504530E-06
  5.9018311945137258E-01  9.1393784968275327E-02  1.2710480931490749E-06
  5.9606293739659988E-01  9.1214212658231000E-02  1.2573184300953416E-06
  6.0200133420985880E-01  9.0988519300088819E-02  1.2437090589761403E-06
  6.0799889349489622E-01  9.0803146981135466E-02  1.2302192884866179E-06
  6.1405620466972755E-01  9.0599749286200848E-02  1.2168483899122302E-06
  6.2017386302456390E-01  9.0372392822771680E-02  1.2035956306939140E-06
  6.2635246978031545E-01  9.0141005107591335E-02  1.1904602780575980E-06
  6.3259263214767536E-01  8.9897620776389339E-02  1.1774415989466907E-06
  6.3889496338679674E-01  8.9678591153444648E-02  1.1645388616644976E-06
  6.4526008286755887E-01  8.9459854765111313E-02  1.1517513355773602E-06
  6.5168861613043894E-01  8.9244697516241950E-02  1.1390782934816631E-06
  6.5818119494798655E-01  8.9033007845297399E-02  1.1265190313932173E-06
  6.6473845738691162E-01  8.8847022985944241E-02  1.1140729052058217E-06
  6.7136104787079331E-01  8.8647896906551032E-02  1.1017393677955471E-06
  6.7804961724340906E-01  8.8461750499906872E-02  1.0895179906477705E-06
  6.8480482283269850E-01  8.8249008293346157E-02  1.0774084641635119E-06
  6.9162732851536335E-01  8.8033798875769773E-02  1.0654105556060581E-06
  6.9851780478210979E-01  8.7814859058085323E-02  1.0535240333119474E-06
  7.0547692880354340E-01  8.7599765376392247E-02  1.0417486493904452E-06
  7.1250538449671663E-01  8.7386137735736960E-02  1.0300841400019333E-06
  7.1960386259234443E-01  8.7167929563350191E-02  1.0185302265751060E-06
  7.2677306070268444E-01  8.6967406315526352E-02  1.0070866141862096E-06
  7.3401368339009654E-01  8.6763280746355628E-02  9.9575297115407999E-07
  7.4132644223628552E-01  8.6552112388439656E-02  9.8452888150165050E-07
  7.4871205591223133E-01  8.6341699611742803E-02  9.7341378322964841E-07
  7.5617125024881771E-01  8.6141271102589234E-02  9.6240691720904719E-07
  7.6370475830816553E-01  8.5952760686158758E-02  9.5150730548423692E-07
  7.7131332045567302E-01  8.5769560526377950E-02  9.4071376200134170E-07
  7.7899768443277906E-01  8.5576388371739642E-02  9.3002494526110082E-07
  7.8675860543044496E-01  8.5352229127982293E-02  9.1943948340412748E-07
  7.9459684616337567E-01  8.5115136972769248E-02  9.0895602937667529E-07
  8.0251317694497382E-01  8.4864928010388058E-02  8.9857326237109451E-07
  8.1050837576304335E-01  8.4646649815016906E-02  8.8828988801108839E-07
  8.1858322835624986E-01  8.4435160591561628E-02  8.7810464208039720E-07
  8.2673852829133676E-01  8.4248231380249422E-02  8.6801631155174167E-07
  8.3497507704111584E-01  8.4095643487429803E-02  8.5802377581545348E-07
  8.4329368406323424E-01  8.3915491675888257E-02  8.4812605154745341E-07
  8.5169516687972158E-01  8.3722623479186797E-02  8.3832232208428249E-07
  8.6018035115733693E-01  8.3516555523240915E-02  8.2861194142738890E-07
  8.6875007078870847E-01  8.3316516728261944E-02  8.1899441523755799E-07
  8.7740516797428947E-01  8.3098495473417286E-02  8.0946936498722482E-07
  8.8614649330512263E-01  8.2898585163976746E-02  8.0003645582160276E-07
  8.9497490584643513E-01  8.2676574200988201E-02  7.9069534383205005E-07
  9.0389127322206564E-01  8.2499998478504893E-02  7.8144567193209244E-07
  9.1289647169972787E-01  8.2293752446709972E-02  7.7228706948417419E-07
  9.2199138627712918E-01  8.2099116500259042E-02  7.6321914886487533E-07
  9.3117691076894571E-01  8.1896301008599279E-02  7.5424148885922700E-07
  9.4045394789466008E-01  8.1701626423876419E-02  7.4535360425965174E-07
  9.4982340936728116E-01  8.1506451033874688E-02  7.3655492176956588E-07
  9.5928621598293962E-01  8.1303630481850617E-02  7.2784477912978129E-07
  9.6884329771138511E-01  8.1097263915995935E-02  7.1922244850261775E-07
  9.7849559378737616E-01  8.0898930939620542E-02  7.1068717276606769E-07
  9.8824405280298611E-01  8.0697261539623269E-02  7.0223820035108330E-07
  9.9808963280082930E-01  8.0506176285502926E-02  6.9387480054160007E-07
  1.0080333013682108E+00  8.0307075930649827E-02  6.8559625436157350E-07
  1.0180760357322178E+00  8.0105665094876696E-02  6.7740185134237782E-07
  1.0282188228557614E+00  7.9916246293252224E-02  6.6929088974596283E-07
  1.0384626595345663E+00  7.9735609409832972E-02  6.6126267846646439E-07
  1.0488085524951374E+00  7.9556122901307855E-02  6.5331654647290775E-07
  1.0592575184936923E+00  7.9365043385526218E-02  6.4545186109004900E-07
  1.0698105844160892E+00  7.9172715774269112E-02  6.3766803743712961E-07
  1.0804687873787413E+00  7.8964622498392659E-02  6.2996452228728039E-07
  1.0912331748305424E+00  7.8756863877260344E-02  6.2234075338108074E-07
  1.1021048046558082E+00  7.8546142223173715E-02  6.1479610959032955E-07
  1.1130847452782380E+00  7.8361423346581291E-02  6.0732987013487044E-07
  1.1241740757659169E+00  7.8165542187848977E-02  5.9994121255424888E-07
  1.1353738859373637E+00  7.7995285130203013E-02  5.9262928784900313E-07
  1.1466852764686319E+00  7.7804599804926544E-02  5.8539325585577023E-07
  1.1581093590014835E+00  7.7616639309432689E-02  5.7823228594259842E-07
  1.1696472562526321E+00  7.7456523284109929E-02  5.7114555610735762E-07
  1.1813001021240850E+00  7.7279365451100951E-02  5.6413224854361019E-07
  1.1930690418145742E+00  7.7082116651075575E-02  5.5719154020640589E-07
  1.2049552319321046E+00  7.6884979425293223E-02  5.5032260093691519E-07
  1.2169598406076221E+00  7.6686054536381498E-02  5.4352461491469489E-07
  1.2290840476098104E+00  7.6483504257744472E-02  5.3679682641549869E-07
  1.2413290444610356E+00  7.6270585235460597E-02  5.3013859573335005E-07
  1.2536960345544472E+00  7.6090977011381691E-02  5.2354944593171702E-07
  1.2661862332722384E+00  7.5908992715409587E-02  5.1702907672662647E-07
  1.2788008681050922E+00  7.5726984407172168E-02  5.1057727096697160E-07
  1.2915411787728148E+00  7.5540396011789093E-02  5.0419380801619364E-07
  1.3044084173461712E+00  7.5348377441140937E-02  4.9787845733006081E-07
  1.3174038483699309E+00  7.5153908684452930E-02  4.9163097893146595E-07
  1.3305287489871447E+00  7.4950337380095350E-02  4.8545112558969830E-07
  1.3437844090646609E+00  7.4771827412849698E-02  4.7933864962230666E-07
  1.3571721313198821E+00  7.4586482451680300E-02  4.7329330937232753E-07
  1.3706932314487958E+00  7.4420178516037980E-02  4.6731486291458237E-07
  1.3843490382552768E+00  7.4269448947142838E-02  4.6140304288124118E-07
  1.3981408937816737E+00  7.4101638079066612E-02  4.5555751767790628E-07
  1.4120701534407016E+00  7.3918049389287602E-02  4.4977785179192994E-07
  1.4261381861486484E+00  7.3721965236890605E-02  4.4406347965936823E-07
  1.4403463744599065E+00  7.3523315155779284E-02  4.3841374273129615E-07
  1.4546961147028417E+00  7.3329315465580885E-02  4.3282797239592718E-07
  1.4691888171170226E+00  7.3132254221025261E-02  4.2730550537156888E-07
  1.4838259059918151E+00  7.2951759311680950E-02  4.2184568366503203E-07
  1.4986088198063516E+00  7.2769587048321011E-02  4.1644785382923551E-07
  1.5135390113709017E+00  7.2589637372154681E-02  4.1111136214070456E-07
  1.5286179479696527E+00  7.2410947897992892E-02  4.0583554384805581E-07
  1.5438471115049022E+00  7.2225901038813170E-02  4.0061971309497110E-07
  1.5592279986426971E+00  7.2050334385048431E-02  3.9546316187373810E-07
  1.5747621209599232E+00  7.1876537853080416E-02  3.9036517121232339E-07
  1.5904510050928544E+00  7.1708820333470313E-02  3.8532503159585829E-07
  1.6062961928871831E+00  7.1526561740023142E-02  3.8034206566287946E-07
  1.6222992415495501E+00  7.1339357848536733E-02  3.7541563781197109E-07
  1.6384617238005825E+00  7.1170553295153247E-02  3.7054513238920107E-07
  1.6547852280294502E+00  7.0988726226243984E-02  3.6572994301874779E-07
  1.6712713584499690E+00  7.0787881975757402E-02  3.6096947224022376E-07
  1.6879217352582612E+00  7.0603844447628669E-02  3.5626313148328298E-07
  1.7047379947919745E+00  7.0433709729253127E-02  3.5161034279867878E-07
  1.7217217896910999E+00  7.0257558450288901E-02  3.4701054559521863E-07
  1.7388747890603884E+00  7.0083613364153488E-02  3.4246320612572970E-07
  1.7561986786333823E+00  6.9896194684493776E-02  3.3796782322777202E-07
  1.7736951609380813E+00  6.9734009386668044E-02  3.3352392577249138E-07
  1.7913659554642627E+00  6.9575317016036808E-02  3.2913106143090897E-07
  1.8092127988324691E+00  6.9394739546031051E-02  3.2478878020460150E-07
  1.8272374449646711E+00  6.9224779192527730E-02  3.2049661990135080E-07
  1.8454416652566397E+00  6.9043859561112114E-02  3.1625411072079700E-07
  1.8638272487520353E+00  6.8855083346566565E-02  3.1206078450466910E-07
  1.8823960023182220E+00  6.8662124703030916E-02  3.0791617542844071E-07
  1.9011497508238435E+00  6.8488415244644218E-02  3.0381982003896480E-07
  1.9200903373181661E+00  6.8307551219559989E-02  2.9977125722661461E-07
  1.9392196232122050E+00  6.8125183291253680E-02  2.9577002672033810E-07
  1.9585394884616540E+00  6.7964867467640008E-02  2.9181566691333443E-07
  1.9780518317516445E+00  6.7805067195134308E-02  2.8790771601407246E-07
  1.9977585706833418E+00  6.7639371284517039E-02  2.8404571936204416E-07
  2.0176616419623965E+00  6.7460007608977898E-02  2.8022924259844034E-07
  2.0377630015892780E+00  6.7276393736504361E-02  2.7645788747625691E-07
  2.0580646250515060E+00  6.7107358053718202E-02  2.7273130466495713E-07
  2.0785685075177898E+00  6.6939374109928312E-02  2.6904917938162458E-07
  2.0992766640341056E+00  6.6755335246431832E-02  2.6541119913996198E-07
  2.1201911297217353E+00  6.6587781757089445E-02  2.6181704863125229E-07
  2.1413139599772650E+00  6.6411826196522999E-02  2.5826640985070213E-07
  2.1626472306745761E+00  6.6238325001862539E-02  2.5475896196444778E-07
  2.1841930383688668E+00  6.6064652837039980E-02  2.5129438124550951E-07
  2.2059535005026873E+00  6.5887703121404267E-02  2.4787234194586928E-07
  2.2279307556140333E+00  6.5722006202432806E-02  2.4449251806854002E-07
  2.2501269635465135E+00  6.5552477578450272E-02  2.4115458540667478E-07
  2.2725443056616177E+00  6.5394321510265779E-02  2.3785822317144439E-07
  2.2951849850530825E+00  6.5230799670193032E-02  2.3460311472196463E-07
  2.3180512267634112E+00  6.5067157432384587E-02  2.3138894724655099E-07
  2.3411452780025401E+00  6.4905538184222858E-02  2.2821540975954851E-07
  2.3644694083686888E+00  6.4746732496293993E-02  2.2508218943703734E-07
  2.3880259100713981E+00  6.4569367343688344E-02  2.2198897066356684E-07
  2.4118170981568134E+00  6.4390500872059192E-02  2.1893543519183479E-07
  2.4358453107351927E+00  6.4207268324298988E-02  2.1592126234437735E-07
  2.4601129092106837E+00  6.3990202679507058E-02  2.1294612908723259E-07
  2.4846222785133980E+00  1.5593076359941434E-04  2.1000971278200803E-07
  2.5093758273337965E+00  3.2673687590368652E-05  2.0711170655399269E-07
  2.5343759883593995E+00  1.8075440997446475E-05  2.0425185690945382E-07
  2.5596252185138648E+00  1.2404263666504754E-05  2.0143002445116080E-07
  2.5851259991984494E+00  9.3880240589632048E-06  1.9864625822183576E-07
  2.6108808365358698E+00  7.5158278236650563E-06  1.9590086684506658E-07
  2.6368922616165862E+00  6.2406361246234283E-06  1.9319443729996912E-07
  2.6631628307475639E+00  5.3163513022868352E-06  1.9052764639435772E-07
  2.6896951257034898E+00  4.6158601803807245E-06  1.8790112401801579E-07
  2.7164917539804945E+00  4.0668665063510734E-06  1.8531544783767161E-07
  2.7435553490524165E+00  3.6252106151788719E-06  1.8277114528154442E-07
  2.7708885706296091E+00  3.2623912215122259E-06  1.8026869556975255E-07
  2.7984941049203189E+00  2.9591877156207561E-06  1.7780853097209481E-07
  2.8263746648946850E+00  2.7021653162317360E-06  1.7539103245663660E-07
  2.8545329905513577E+00  2.4816491514155482E-06  1.7301651294911476E-07
  2.8829718491867764E+00  2.2904939983756790E-06  1.7068518532156574E-07
  2.9116940356671197E+00  2.1233073593782444E-06  1.6839711829910502E-07
  2.9407023727029888E+00  1.9759418644780051E-06  1.6615218894825893E-07
  2.9699997111268064E+00  1.8451520938589237E-06  1.6395004930858260E-07
  2.9995889301729850E+00  1.7283588848309999E-06  1.6179020631591383E-07
  3.0294729377608851E+00  1.6234901098307945E-06  1.5967215250432008E-07
  3.0596546707806049E+00  1.5288627019251476E-06  1.5759538396566527E-07
  3.0901370953815963E+00  1.4430954090143161E-06  1.5555940067182481E-07
  3.1209232072641702E+00  1.3650440253863781E-06  1.5356370638902307E-07
  3.1520160319739077E+00  1.2937526225981409E-06  1.5160780927687319E-07
  3.1834186251989958E+00  1.2284163666721321E-06  1.4969123605195004E-07
  3.2151340730705229E+00  1.1683528820673136E-06  1.4781358454056386E-07
  3.2471654924657849E+00  1.1129800558352193E-06  1.4597463268943275E-07
  3.2795160313145941E+00  1.0617988686483902E-06  1.4417450358351888E-07
  3.3121888689086436E+00  1.0143805630499003E-06  1.4241386519251691E-07
  3.3451872162139575E+00  9.7035935118678695E-07  1.4069412302103892E-07
  3.3785143161864610E+00  9.2942853816492221E-07  1.3901733052319657E-07
  3.4121734440906732E+00  8.9132281986988444E-07  1.3738561826708791E-07
  3.4461679078215939E+00  8.5580759388992663E-07  1.3580102378085658E-07
  3.4805010482297964E+00  8.2267454755469803E-07  1.3426549873550716E-07
  3.5151762394497501E+00  7.9173805181904501E-07  1.3278091833304869E-07
  3.5501968892314069E+00  7.6283215102333076E-07  1.3134909123889506E-07
  3.5855664392751230E+00  7.3580803010508452E-07  1.2997176438004924E-07
  3.6212883655698853E+00  7.1053184656091509E-07  1.2865060526899175E-07
  3.6573661787349141E+00  6.8688281315117130E-07  1.2738714323129261E-07
  3.6938034243646816E+00  6.6475139520339479E-07  1.2618266111609561E-07
  3.7306036833773608E+00  6.4403738140357845E-07  1.2503804373890867E-07
  3.7677705723667376E+00  6.2464710754052106E-07  1.2395360469891840E-07
  3.8053077439576399E+00  6.0648908367962454E-07  1.2292901596054347E-07
  3.8432188871649102E+00  5.8947637882515843E-07  1.2196372581902872E-07
  3.8815077277559378E+00  5.7353007465727907E-07  1.2105724306419449E-07
  3.9201780286168169E+00  5.5857860999634024E-07  1.2020914984420346E-07
  3.9592335901221558E+00  5.4455700049843571E-07  1.1941910261973427E-07
  3.9986782505085579E+00  5.3140615779091056E-07  1.1868683401997620E-07
  4.0385158862518278E+00  5.1907229115656748E-07  1.1801215299268261E-07
  4.0787504124479375E+00  5.0750636726697380E-07  1.1739493314229415E-07
  4.1193857831977958E+00  4.9666359314942531E-07  1.1683507511700817E-07
  4.1604259919958322E+00  4.8650286992451661E-07  1.1633243161893546E-07
  4.2018750721224647E+00  4.7698611488596149E-07  1.1588669068813634E-07
  4.2437370970404844E+00  4.6807717825007666E-07  1.1549722321009343E-07
  4.2860161807953743E+00  4.5973970602104284E-07  1.1516293623232472E-07
  4.3287164784196106E+00  4.5193708953918114E-07  1.1488245269172261E-07
  4.3718421863410288E+00  4.4463529219453267E-07  1.1465443465325091E-07
  4.4153975427952208E+00  4.3780301587043768E-07  1.1447761631562613E-07
  4.4593868282420361E+00  4.3141143384357804E-07  1.1435079801259171E-07
  4.5038143657862832E+00  4.2543395259299570E-07  1.1427284065194377E-07
  4.5486845216025680E+00  4.1984599832496465E-07  1.1424265995835376E-07
  4.5940017053643762E+00  4.1462481270151330E-07  1.1425920994903845E-07
  4.6397703706774651E+00  4.0974921948544898E-07  1.1432143056960026E-07
  4.6859950155175367E+00  4.0519929162240259E-07  1.1442812872870483E-07
  4.7326801826722562E+00  4.0095577640880159E-07  1.1457776464929234E-07
  4.7798304601877621E+00  3.9699893151477952E-07  1.1476812744620316E-07
  4.8274504818194952E+00  3.9330579251151049E-07  1.1499591742451377E-07
  4.8755449274876126E+00  3.8984807492382725E-07  1.1525673336424211E-07
  4.9241185237369489E+00  3.8659701976401760E-07  1.1554585940654486E-07
  4.9731760442014581E+00  3.8352510290190577E-07  1.1585848384522663E-07
  5.0227223100733980E+00  3.8060590201750878E-07  1.1618968782619501E-07
  5.0727621905771274E+00  3.7781397183165631E-07  1.1653443478504508E-07
  5.1233006034476123E+00  3.7512473976378980E-07  1.1688756222951733E-07
  5.1743425154137608E+00  3.7251442359466218E-07  1.1724377868909340E-07
  5.2258929426865128E+00  3.6995998351478343E-07  1.1759767670546425E-07
  5.2779569514518050E+00  3.6743913722194392E-07  1.1794377967036192E-07
  5.3305396583684814E+00  3.6493049825632840E-07  1.1827664416640244E-07
  5.3836462310711344E+00  3.6241397641411292E-07  1.1859103882872635E-07
  5.4372818886779326E+00  3.5987181464087833E-07  1.1888221142433908E-07
  5.4914519023035773E+00  3.5729020116179301E-07  1.1914608821069219E-07
  5.5461615955773098E+00  3.5465752509428318E-07  1.1937885489127898E-07
  5.6014163451660792E+00  3.5196265724411292E-07  1.1957667047041982E-07
  5.6572215813029780E+00  3.4919489631586361E-07  1.1973566829616072E-07
  5.7135827883208865E+00  3.4634398901912588E-07  1.1985196911868890E-07
  5.7705055051914318E+00  3.4340015301045455E-07  1.1992169508375206E-07
  5.8279953260693986E+00  3.4035410501212905E-07  1.1994098711318645E-07
  5.8860579008424292E+00  3.3719710721844674E-07  1.1990603696494905E-07
  5.9446989356863051E+00  3.3392106439592412E-07  1.1981315656359770E-07
  6.0039241936257666E+00  3.3051874129609912E-07  1.1965891827759222E-07
  6.0637394951008066E+00  3.2698425572938167E-07  1.1944040794104287E-07
  6.1241507185387434E+00  3.2331423204116776E-07  1.1915563026679041E-07
  6.1851638009319103E+00  3.1951017637853123E-07  1.1880399501403293E-07
