 #p(MeV) \t \delta f_\\nu \t \delta f_\\nubar
  4.0219983499491754E+00  1.3979083872759250E-11  1.3700888743755642E-11
  4.0620683168701017E+00  1.3730758337109782E-11  1.3456744078216380E-11
  4.1025374888899204E+00  1.3487033766851064E-11  1.3217123501047283E-11
  4.1434098431696675E+00  1.3247822173377765E-11  1.2981940593640350E-11
  4.1846893964936367E+00  1.3013041507023935E-11  1.2751114763621497E-11
  4.2263802056641504E+00  1.2782612222483970E-11  1.2524567872970298E-11
  4.2684863679002341E+00  1.2556456065727545E-11  1.2302223047739316E-11
  4.3110120212402814E+00  1.2334496057809325E-11  1.2084004662368035E-11
  4.3539613449487300E+00  1.2116656478793121E-11  1.1869838324101273E-11
  4.3973385599267738E+00  1.1902862851770245E-11  1.1659650857492430E-11
  4.4411479291271885E+00  1.1693041926972539E-11  1.1453370288992049E-11
  4.4853937579732683E+00  1.1487121665980990E-11  1.1250925831623045E-11
  4.5300803947819537E+00  1.1285031226030839E-11  1.1052247869743320E-11
  4.5752122311911716E+00  1.1086700944413953E-11  1.0857267943897160E-11
  4.6207937025914161E+00  1.0892062322979853E-11  1.0665918735756451E-11
  4.6668292885616607E+00  1.0701047463612817E-11  1.0478133515611072E-11
  4.7133235133095752E+00  1.0513584614049583E-11  1.0293841780502156E-11
  4.7602809461161595E+00  1.0329600768562882E-11  1.0112971801842701E-11
  4.8077062017848000E+00  1.0149024555443843E-11  9.9354534544693578E-12
  4.8556039410947811E+00  9.9717862307815499E-12  9.7612182105661798E-12
  4.9039788712593468E+00  9.7978176377524131E-12  9.5901990997756026E-12
  4.9528357463882910E+00  9.6270521670574832E-12  9.4223306704316562E-12
  5.0021793679551809E+00  9.4594247184701979E-12  9.2575489518794328E-12
  5.0520145852692417E+00  9.2948716634591063E-12  9.0957914178455444E-12
  5.1023462959518984E+00  9.1333308088510655E-12  8.9369969508262761E-12
  5.1531794464181306E+00  8.9747413615014595E-12  8.7811058074605353E-12
  5.2045190323625619E+00  8.8190438939397555E-12  8.6280595848567670E-12
  5.2563700992504243E+00  8.6661804493903852E-12  8.4778013230356666E-12
  5.3087377428134248E+00  8.5160984787083258E-12  8.3302793535161234E-12
  5.3616271095505059E+00  8.3687512328946891E-12  8.1854476830932283E-12
  5.4150433972336547E+00  8.2240928782525759E-12  8.0432612153834471E-12
  5.4689918554186940E+00  8.0820781846929182E-12  7.9036754458732883E-12
  5.5234777859612079E+00  7.9426625238562195E-12  7.7666464601803580E-12
  5.5785065435375847E+00  7.8058018670590443E-12  7.6321309321372894E-12
  5.6340835361712429E+00  7.6714527830686270E-12  7.5000861217018277E-12
  5.6902142257641346E+00  7.5395724357086804E-12  7.3704698726962633E-12
  5.7469041286334965E+00  7.4101185813003535E-12  7.2432406103803037E-12
  5.8041588160539872E+00  7.2830495659419473E-12  7.1183573388609747E-12
  5.8619839148052151E+00  7.1583243226317025E-12  6.9957796383438758E-12
  5.9203851077247052E+00  7.0359023631171180E-12  6.8754676572532138E-12
  5.9793681342663900E+00  6.9157417317391483E-12  6.7573801151989923E-12
  6.0389387910646759E+00  6.7977957526232902E-12  6.6414711271216482E-12
  6.0991029325040946E+00  6.6820179051213392E-12  6.5276949656032319E-12
  6.1598664712946691E+00  6.5683627740640392E-12  6.4160069892491636E-12
  6.2212353790529757E+00  6.4567860206315466E-12  6.3063636140931275E-12
  6.2832156868890294E+00  6.3472443541315781E-12  6.1987222858916351E-12
  6.3458134859989848E+00  6.2396955046513872E-12  6.0930414532752876E-12
  6.4090349282637611E+00  6.1340981965513528E-12  5.9892805417247907E-12
  6.4728862268536362E+00  6.0304121227688551E-12  5.8873999283413970E-12
  6.5373736568388390E+00  5.9285979199030011E-12  5.7873609173827008E-12
  6.6025035558062442E+00  5.8286171440514557E-12  5.6891257165355355E-12
  6.6682823244822176E+00  5.7304322473734398E-12  5.5926574139006654E-12
  6.7347164273616400E+00  5.6340071128509864E-12  5.4979204986567947E-12
  6.8018123933432308E+00  5.5393101942526936E-12  5.4048839215103840E-12
  6.8695768163711621E+00  5.4463120895753401E-12  5.3135187283604094E-12
  6.9380163560831143E+00  5.3549838355603209E-12  5.2237963963053671E-12
  7.0071377384647393E+00  5.2652968947987521E-12  5.1356888210564338E-12
  7.0769477565106671E+00  5.1772231518807113E-12  5.0491683131892093E-12
  7.1474532708921164E+00  5.0907349095297803E-12  4.9642075943786265E-12
  7.2186612106311108E+00  5.0058048847230104E-12  4.8807797936172527E-12
  7.2905785737814481E+00  4.9224062047963951E-12  4.7988584434171294E-12
  7.3632124281164533E+00  4.8405124035362453E-12  4.7184174759955952E-12
  7.4365699118235495E+00  4.7600974172569865E-12  4.6394312194456204E-12
  7.5106582342058044E+00  4.6811355808657735E-12  4.5618743938911576E-12
  7.5854846763903963E+00  4.6036015404731496E-12  4.4857220265505262E-12
  7.6610565920442149E+00  4.5274683367483139E-12  4.4109475850440132E-12
  7.7373814080965237E+00  4.4527073932622387E-12  4.3375229651440739E-12
  7.8144666254688593E+00  4.3792906752004988E-12  4.2654205958592750E-12
  7.8923198198122080E+00  4.3071907941663011E-12  4.1946135416634238E-12
  7.9709486422514928E+00  4.2363809916879701E-12  4.1250754862955199E-12
  8.0503608201375023E+00  4.1668351232111860E-12  4.0567807170349927E-12
  8.1305641578063277E+00  4.0985276425595190E-12  3.9897041094361309E-12
  8.2115665373463091E+00  4.0314335868472474E-12  3.9238211125059716E-12
  8.2933759193726875E+00  3.9655285618290099E-12  3.8591077343105871E-12
  8.3760003438099204E+00  3.9007887276716921E-12  3.7955405279953011E-12
  8.4594479306818489E+00  3.8371907851340968E-12  3.7330965782048906E-12
  8.5437268809096647E+00  3.7747119638785580E-12  3.6717534895710866E-12
  8.6288454771178866E+00  3.7133305028203710E-12  3.6114898542419384E-12
  8.7148120844483632E+00  3.6530264850921356E-12  3.5522860659661781E-12
  8.8016351513823299E+00  3.5937806077458069E-12  3.4941231203884110E-12
  8.8893232105707156E+00  3.5355739102211436E-12  3.4369823500045748E-12
  8.9778848796727164E+00  3.4783877684761598E-12  3.3808454183995336E-12
  9.0673288622026700E+00  3.4222038892575164E-12  3.3256943146210658E-12
  9.1576639483854425E+00  3.3670043045045758E-12  3.2715113476839658E-12
  9.2488990160202622E+00  3.3127713658812892E-12  3.2182791411986684E-12
  9.3410430313532391E+00  3.2594877394302193E-12  3.1659806281187675E-12
  9.4341050499584949E+00  3.2071364003435840E-12  3.1145990456024162E-12
  9.5280942176281282E+00  3.1557006278462258E-12  3.0641179299826897E-12
  9.6230197712710464E+00  3.1051640001894615E-12  3.0145211118457379E-12
  9.7188910398207042E+00  3.0555104990236640E-12  2.9657928170179232E-12
  9.8157174451519253E+00  3.0067248862614258E-12  2.9179180303941593E-12
  9.9135085030068772E+00  2.9587922888706939E-12  2.8708820935832643E-12
  1.0012273823930197E+01  2.9116980690879623E-12  2.8246705799097154E-12
  1.0112023114213525E+01  2.8654278223293430E-12  2.7792692923610482E-12
  1.0212766176849360E+01  2.8199673740438336E-12  2.7346642605000792E-12
  1.0314512912494513E+01  2.7753027766629199E-12  2.6908417374699425E-12
  1.0417273320443051E+01  2.7314203066393804E-12  2.6477881970849729E-12
  1.0521057499609027E+01  2.6883064615686688E-12  2.6054903310009633E-12
  1.0625875649518965E+01  2.6459479573866313E-12  2.5639350459587183E-12
  1.0731738071314211E+01  2.6043317256379536E-12  2.5231094610954132E-12
  1.0838655168763301E+01  2.5634449108098869E-12  2.4830009053184429E-12
  1.0946637449284417E+01  2.5232747994444589E-12  2.4435968487715471E-12
  1.1055695524977988E+01  2.4838078849398410E-12  2.4048839998778903E-12
  1.1165840113669653E+01  2.4450301824817499E-12  2.3668486107463187E-12
  1.1277082039963513E+01  2.4069279993974807E-12  2.3294772211113439E-12
  1.1389432236305993E+01  2.3694879453640043E-12  2.2927566680256522E-12
  1.1502901744060187E+01  2.3326969249414388E-12  2.2566740785229689E-12
  1.1617501714590997E+01  2.2965421303636486E-12  2.2212168625326130E-12
  1.1733243410361048E+01  2.2610110345744682E-12  2.1863727060343440E-12
  1.1850138206037503E+01  2.2260913844985702E-12  2.1521295644428398E-12
  1.1968197589609927E+01  2.1917711945364906E-12  2.1184756562114139E-12
  1.2087433163519311E+01  2.1580387402738872E-12  2.0853994566453288E-12
  1.2207856645798275E+01  2.1248825523956087E-12  2.0528896919153705E-12
  1.2329479871222700E+01  2.0922914179924084E-12  2.0209353402212782E-12
  1.2452314792474803E+01  2.0602548848933445E-12  1.9895261163170549E-12
  1.2576373481317809E+01  2.0287634631173945E-12  1.9586526618393108E-12
  1.2701668129782295E+01  1.9978078710584835E-12  1.9283058219761673E-12
  1.2828211051364391E+01  1.9673789820282167E-12  1.8984765946524194E-12
  1.2956014682235930E+01  1.9374678217684866E-12  1.8691561280823830E-12
  1.3085091582466580E+01  1.9080655660704228E-12  1.8403357184257019E-12
  1.3215454437258238E+01  1.8791635384919021E-12  1.8120068075385188E-12
  1.3347116058191681E+01  1.8507532081664054E-12  1.7841609808129499E-12
  1.3480089384485629E+01  1.8228261876964562E-12  1.7567899650982488E-12
  1.3614387484268359E+01  1.7953742311252947E-12  1.7298856266974444E-12
  1.3750023555862017E+01  1.7683892319809072E-12  1.7034399694337355E-12
  1.3887010929079690E+01  1.7418632214034749E-12  1.6774451327963280E-12
  1.4025363066535389E+01  1.7157883357414194E-12  1.6518933624234172E-12
  1.4165093564967130E+01  1.6901571219599179E-12  1.6267773137211130E-12
  1.4306216156573175E+01  1.6649624662632372E-12  1.6020899754597150E-12
  1.4448744710361558E+01  1.6401973474928332E-12  1.5778244277552681E-12
  1.4592693233513085E+01  1.6158548352759783E-12  1.5539738402715663E-12
  1.4738075872757950E+01  1.5919280894804240E-12  1.5305314716873949E-12
  1.4884906915765958E+01  1.5684103597451561E-12  1.5074906692365745E-12
  1.5033200792550694E+01  1.5452949850782874E-12  1.4848448683119870E-12
  1.5182972076887680E+01  1.5225753935137278E-12  1.4625875921254730E-12
  1.5334235487746597E+01  1.5002451018189425E-12  1.4407124514160286E-12
  1.5487005890737803E+01  1.4782977152466726E-12  1.4192131441993628E-12
  1.5641298299573293E+01  1.4567269273240266E-12  1.3980834555523483E-12
  1.5797127877542209E+01  1.4355264861504018E-12  1.3773172245989542E-12
  1.5954509939000976E+01  1.4146893082447686E-12  1.3569074830133638E-12
  1.6113459950878383E+01  1.3942075297147727E-12  1.3368465072395648E-12
  1.6273993534195622E+01  1.3740734528627857E-12  1.3171267376529991E-12
  1.6436126465601436E+01  1.3542795803195730E-12  1.2977408115371165E-12
  1.6599874678922582E+01  1.3348186090657302E-12  1.2786815572072027E-12
  1.6765254266729805E+01  1.3156834247006623E-12  1.2599419883764555E-12
  1.6932281481919308E+01  1.2968670959470497E-12  1.2415152987524560E-12
  1.7100972739310027E+01  1.2783628693792541E-12  1.2233948568527227E-12
  1.7271344617256830E+01  1.2601641643647463E-12  1.2055742010286293E-12
  1.7443413859279804E+01  1.2422645682081907E-12  1.1880470346874973E-12
  1.7617197375709694E+01  1.2246578314882837E-12  1.1708072217031872E-12
  1.7792712245349808E+01  1.2073378642101476E-12  1.1538487827208274E-12
  1.7969975717154501E+01  1.1902993072535598E-12  1.1371664498234699E-12
  1.8149005211924266E+01  1.1735382096336050E-12  1.1207563196306320E-12
  1.8329818324017833E+01  1.1570508208545467E-12  1.1046146832270541E-12
  1.8512432823081269E+01  1.1408334122811258E-12  1.0887378535470973E-12
  1.8696866655794338E+01  1.1248822782026737E-12  1.0731221664201287E-12
  1.8883137947634154E+01  1.1091937368662570E-12  1.0577639815845425E-12
  1.9071265004656574E+01  1.0937641314778894E-12  1.0426596836696135E-12
  1.9261266315295217E+01  1.0785898311711533E-12  1.0278056831444546E-12
  1.9453160552178431E+01  1.0636672319425996E-12  1.0131984172335443E-12
  1.9646966573964360E+01  1.0489927575534506E-12  9.9883435079832500E-13
  1.9842703427194362E+01  1.0345628603972423E-12  9.8470997718456636E-13
  2.0040390348164753E+01  1.0203740223730423E-12  9.7082181907241478E-13
  2.0240046764817315E+01  1.0064225586563836E-12  9.5716623865398794E-13
  2.0441692298648636E+01  9.9270374334438397E-13  9.4373859543399066E-13
  2.0645346766638411E+01  9.7921259894105141E-13  9.3053400898438260E-13
  2.0851030183196919E+01  9.6594427381982619E-13  9.1754772252434795E-13
  2.1058762762132080E+01  9.5289403884885057E-13  9.0477509959972507E-13
  2.1268564918635931E+01  9.4005728392342551E-13  8.9221162067539184E-13
  2.1480457271290948E+01  9.2742951461640818E-13  8.7985287984330836E-13
  2.1694460644096367E+01  9.1500634894193832E-13  8.6769458164167793E-13
  2.1910596068514749E+01  9.0278351422810432E-13  8.5573253798092180E-13
  2.2128884785538776E+01  8.9075684409429498E-13  8.4396266517228835E-13
  2.2349348247778810E+01  8.7892227552920662E-13  8.3238098105513141E-13
  2.2572008121571159E+01  8.6727584606560563E-13  8.2098360221903070E-13
  2.2796886289107380E+01  8.5581373632578380E-13  8.0976678456063970E-13
  2.3024004850584703E+01  8.4453284718257130E-13  7.9872747492656170E-13
  2.3253386126378064E+01  8.3343059558380242E-13  7.8786311515877913E-13
  2.3485052659233624E+01  8.2250443765266008E-13  7.7717118552249145E-13
  2.3719027216484154E+01  8.1175185700999643E-13  7.6664919351878637E-13
  2.3955332792286548E+01  8.0117036485351465E-13  7.5629467395721088E-13
  2.4193992609881661E+01  7.9075750002360921E-13  7.4610518901501591E-13
  2.4435030123876501E+01  7.8051082905623437E-13  7.3607832828344121E-13
  2.4678469022549322E+01  7.7042794622313685E-13  7.2621170880136657E-13
  2.4924333230177631E+01  7.6050647355981488E-13  7.1650297507670679E-13
  2.5172646909389368E+01  7.5074406088157025E-13  7.0694979909588838E-13
  2.5423434463537440E+01  7.4113838578798522E-13  6.9754988032177100E-13
  2.5676720539098142E+01  7.3168714767623555E-13  6.8830094012805231E-13
  2.5932530028093222E+01  7.2238782259063762E-13  6.7920049183281996E-13
  2.6190888070536168E+01  7.1323757655361837E-13  6.7024575894680910E-13
  2.6451820056902914E+01  7.0423360582842968E-13  6.6143399578221820E-13
  2.6715351630627158E+01  6.9537316439162110E-13  6.5276251338201816E-13
  2.6981508690620402E+01  6.8665356264577437E-13  6.4422867825593841E-13
  2.7250317393817273E+01  6.7807216616625622E-13  6.3582991114972577E-13
  2.7521804157746139E+01  6.6962639448092280E-13  6.2756368584663429E-13
  2.7795995663125328E+01  6.6131371988176964E-13  6.1942752800015208E-13
  2.8072918856485085E+01  6.5313166626752902E-13  6.1141901399699382E-13
  2.8352600952815973E+01  6.4507780801626523E-13  6.0353576984942133E-13
  2.8635069438243352E+01  6.3714976888706544E-13  5.9577547011600398E-13
  2.8920352072728612E+01  6.2934522109032125E-13  5.8813583697191129E-13
  2.9208476892797314E+01  6.2166191095065658E-13  5.8061466238001807E-13
  2.9499472214294602E+01  6.1409765739847650E-13  5.7320980357752194E-13
  2.9793366635167878E+01  6.0665031668633132E-13  5.6591915392057225E-13
  3.0090189038277327E+01  5.9931778905111334E-13  5.5874064997430941E-13
  3.0389968594234478E+01  5.9209801770663266E-13  5.5167227052214622E-13
  3.0692734764268938E+01  5.8498898786236906E-13  5.4471203560074048E-13
  3.0998517303123666E+01  5.7798872576812637E-13  5.3785800556035730E-13
  3.1307346261979298E+01  5.7109529778381156E-13  5.3110828014985873E-13
  3.1619251991407392E+01  5.6430680947361395E-13  5.2446099762560435E-13
  3.1934265144353155E+01  5.5762140472383279E-13  5.1791433388353924E-13
  3.2252416679147899E+01  5.5103726488369620E-13  5.1146650161379084E-13
  3.2573737862551603E+01  5.4455260792845299E-13  5.0511574947711214E-13
  3.2898260272825560E+01  5.3816569005435115E-13  4.9886036410735094E-13
  3.3226015802835839E+01  5.3187487967463152E-13  4.9269874242002160E-13
  3.3557036663187652E+01  5.2567863905884434E-13  4.8662937218297085E-13
  3.3891355385390838E+01  5.1957545723268107E-13  4.8065076744680140E-13
  3.4229004825056840E+01  5.1356384808198999E-13  4.7476146673307762E-13
  3.4570018165127834E+01  5.0764234996647878E-13  4.6896003265291798E-13
  3.4914428919137720E+01  5.0180952534022345E-13  4.6324505153217209E-13
  3.5262270934505665E+01  4.9606396037880434E-13  4.5761513304301055E-13
  3.5613578395862575E+01  4.9040426461292791E-13  4.5206890984177214E-13
  3.5968385828410646E+01  4.8482907056837546E-13  4.4660503721292760E-13
  3.6326728101316291E+01  4.7933703341213214E-13  4.4122219271901066E-13
  3.6688640431137003E+01  4.7392683060456796E-13  4.3591907585638522E-13
  3.7054158385282363E+01  4.6859715906639369E-13  4.3069440534049722E-13
  3.7423317885509363E+01  4.6334660841548251E-13  4.2554679985751527E-13
  3.7796155211452707E+01  4.5817361049808006E-13  4.2047473124278093E-13
  3.8172707004190315E+01  4.5307661878989631E-13  4.1547669318842507E-13
  3.8553010269844172E+01  4.4805412255275243E-13  4.1055121449578037E-13
  3.8937102383217201E+01  4.4310464590640534E-13  4.0569685816620285E-13
  3.9325021091466269E+01  4.3822674692819299E-13  4.0091222051908404E-13
  3.9716804517811958E+01  4.3341901677958972E-13  3.9619593033616580E-13
  4.0112491165285036E+01  4.2868007885879108E-13  3.9154664803128739E-13
  4.0512119920510443E+01  4.2400858797848134E-13  3.8696306484473720E-13
  4.0915730057529004E+01  4.1940322956796489E-13  3.8244390206140196E-13
  4.1323361241657054E+01  4.1486271889887299E-13  3.7798791025193185E-13
  4.1735053533384509E+01  4.1038580038602307E-13  3.7359386858362778E-13
  4.2150847392312087E+01  4.0597128998962368E-13  3.6926062381286702E-13
  4.2570783681127423E+01  4.0161816379339116E-13  3.6498717196094381E-13
  4.2994903669620747E+01  3.9732544391491412E-13  3.6077255271654488E-13
  4.3423249038741005E+01  3.9309216996509539E-13  3.5661582295220904E-13
  4.3855861884691969E+01  3.8891739870628996E-13  3.5251605638805439E-13
  4.4292784723069182E+01  3.8480020371859665E-13  3.4847234326343415E-13
  4.4734060493038463E+01  3.8073967507407676E-13  3.4448379001628870E-13
  4.5179732561555731E+01  3.7673491901867705E-13  3.4054951896998064E-13
  4.5629844727628708E+01  3.7278505766166272E-13  3.3666866802741660E-13
  4.6084441226621877E+01  3.6888922867232560E-13  3.3284039037223165E-13
  4.6543566734603139E+01  3.6504658498380462E-13  3.2906385417686457E-13
  4.7007266372734705E+01  3.6125629450377893E-13  3.2533824231730182E-13
  4.7475585711707723E+01  3.5751752760914602E-13  3.2166274110584132E-13
  4.7948570776220173E+01  3.5382938217758649E-13  3.1803647256928394E-13
  4.8426268049500514E+01  3.5019093470264847E-13  3.1445854071392890E-13
  4.8908724477875730E+01  3.4660128085747861E-13  3.1092806839981666E-13
  4.9395987475384885E+01  3.4305953533349259E-13  3.0744419716696078E-13
  4.9888104928439056E+01  3.3956483139759942E-13  3.0400608680183659E-13
  5.0385125200527341E+01  3.3611632046171526E-13  3.0061291491581459E-13
  5.0887097136969658E+01  3.3271317166419159E-13  2.9726387653516149E-13
  5.1394070069717380E+01  3.2935457146278867E-13  2.9395818370225458E-13
  5.1906093822201385E+01  3.2603972323885522E-13  2.9069506508766369E-13
  5.2423218714228334E+01  3.2276784691236486E-13  2.8747376561277287E-13
  5.2945495566926219E+01  3.1953817856748900E-13  2.8429354608260487E-13
  5.3472975707738740E+01  3.1634997315773806E-13  2.8115368548254014E-13
  5.4005710975469412E+01  3.1320255629894278E-13  2.7805352593689314E-13
  5.4543753725376412E+01  3.1009531572227317E-13  2.7499246515747360E-13
  5.5087156834317703E+01  3.0702765181407116E-13  2.7196991308066322E-13
  5.5635973705947336E+01  3.0399897546194875E-13  2.6898528993853274E-13
  5.6190258275964410E+01  3.0100870784378459E-13  2.6603802605151954E-13
  5.6750065017412922E+01  2.9805628022225567E-13  2.6312756162645296E-13
  5.7315448946035509E+01  2.9514113374472446E-13  2.6025334655976481E-13
  5.7886465625680550E+01  2.9226271924833574E-13  2.5741484024572197E-13
  5.8463171173762035E+01  2.8942049707016063E-13  2.5461151138954020E-13
  5.9045622266775190E+01  2.8661393686224014E-13  2.5184283782521823E-13
  5.9633876145866218E+01  2.8384251741138026E-13  2.4910830633795253E-13
