 #p(MeV) \t \delta f_\\nu \t \delta f_\\nubar
  1.1053934715340078E-02  9.9232432118463637E-02  2.1287565111790291E-06
  1.1164061761611830E-02  9.8985292148459733E-02  2.1098596021258116E-06
  1.1275285970715893E-02  9.8752182147833573E-02  2.0911112465232124E-06
  1.1387618273357511E-02  9.8541333752182519E-02  2.0725109392232030E-06
  1.1501069709141247E-02  9.8365137117440798E-02  2.0540582637309541E-06
  1.1615651427655971E-02  9.8147200544324797E-02  2.0357528682055789E-06
  1.1731374689570554E-02  9.7920264530833453E-02  2.0175944425030973E-06
  1.1848250867740544E-02  9.7643080745935334E-02  1.9995827112347729E-06
  1.1966291448325865E-02  9.7403310259713369E-02  1.9817174365731666E-06
  1.2085508031919595E-02  9.7160097581507940E-02  1.9639983800735456E-06
  1.2205912334688077E-02  9.6963287651518099E-02  1.9464252178783448E-06
  1.2327516189522294E-02  9.6749295661982246E-02  1.9289974510147488E-06
  1.2450331547200788E-02  9.6525593493367520E-02  1.9117143500698984E-06
  1.2574370477564151E-02  9.6288917779519548E-02  1.8945749458606936E-06
  1.2699645170701159E-02  9.6046853664522633E-02  1.8775780538095769E-06
  1.2826167938146834E-02  9.5794390911734681E-02  1.8607223142747570E-06
  1.2953951214092308E-02  9.5580816095848481E-02  1.8440062353682975E-06
  1.3083007556606846E-02  9.5347339298847464E-02  1.8274282301269029E-06
  1.3213349648872023E-02  9.5119266178330497E-02  1.8109866528777673E-06
  1.3344990300428135E-02  9.4905506644962431E-02  1.7946798254061539E-06
  1.3477942448433118E-02  9.4704216214900397E-02  1.7785060278732672E-06
  1.3612219158933930E-02  9.4471981393146026E-02  1.7624634941812384E-06
  1.3747833628150644E-02  9.4286129930795118E-02  1.7465504532456303E-06
  1.3884799183773352E-02  9.4069336063562048E-02  1.7307652040620964E-06
  1.4023129286271904E-02  9.3837433638438494E-02  1.7151061872692453E-06
  1.4162837530218820E-02  9.3604255003921416E-02  1.6995720253267777E-06
  1.4303937645625257E-02  9.3397709825926933E-02  1.6841615277302711E-06
  1.4446443499290368E-02  9.3171238042920171E-02  1.6688736726403823E-06
  1.4590369096164098E-02  9.2942050398881995E-02  1.6537075777307870E-06
  1.4735728580723502E-02  9.2731765615652662E-02  1.6386624700887287E-06
  1.4882536238362845E-02  9.2517708870460236E-02  1.6237376561115829E-06
  1.5030806496797493E-02  9.2298051529196734E-02  1.6089324910895263E-06
  1.5180553927481820E-02  9.2077488640042338E-02  1.5942463767150362E-06
  1.5331793247041271E-02  9.1852837918355690E-02  1.5796787821104402E-06
  1.5484539318718588E-02  9.1627592110675934E-02  1.5652292493474317E-06
  1.5638807153834606E-02  9.1394164311916659E-02  1.5508973678493656E-06
  1.5794611913263413E-02  9.1214593465077917E-02  1.5366827302928588E-06
  1.5951968908922375E-02  9.0988901634827590E-02  1.5225848919954250E-06
  1.6110893605276923E-02  9.0803530828884496E-02  1.5086033473196893E-06
  1.6271401620860316E-02  9.0600134687072426E-02  1.4947375230925196E-06
  1.6433508729808581E-02  9.0372779823253813E-02  1.4809867836234341E-06
  1.6597230863410778E-02  9.0141393736158745E-02  1.4673504411250998E-06
  1.6762584111674597E-02  8.9898011069635242E-02  1.4538277675575734E-06
  1.6929584724907701E-02  8.9678983114017313E-02  1.4404180072503696E-06
  1.7098249115314677E-02  8.9460248418881436E-02  1.4271203855268090E-06
  1.7268593858610029E-02  8.9245092886431621E-02  1.4139341179700076E-06
  1.7440635695647126E-02  8.9033404955699766E-02  1.4008584353450174E-06
  1.7614391534063446E-02  8.8847421839370888E-02  1.3878926236218307E-06
  1.7789878449942238E-02  8.8648297543719085E-02  1.3750360635319056E-06
  1.7967113689490635E-02  8.8462152936807856E-02  1.3622882541048174E-06
  1.8146114670734566E-02  8.8249412585082981E-02  1.3496488145148925E-06
  1.8326898985230586E-02  8.8034205054735359E-02  1.3371174692529469E-06
  1.8509484399794614E-02  8.7815267158785223E-02  1.3246940251334880E-06
  1.8693888858248100E-02  8.7600175426865379E-02  1.3123783472061602E-06
  1.8880130483181365E-02  8.7386549767444449E-02  1.3001703375736850E-06
  1.9068227577734725E-02  8.7168343614939706E-02  1.2880699193308871E-06
  1.9258198627397187E-02  8.6967822404598411E-02  1.2760770220628501E-06
  1.9450062301823147E-02  8.6763698913003839E-02  1.2641915522981505E-06
  1.9643837456667219E-02  8.6552532677621474E-02  1.2524133394970644E-06
  1.9839543135437242E-02  8.6342122061945706E-02  1.2407420701178599E-06
  2.0037198571365822E-02  8.6141695744281516E-02  1.2291772339502292E-06
  2.0236823189300542E-02  8.5953187549127827E-02  1.2177181007747730E-06
  2.0438436607612884E-02  8.5769989648557324E-02  1.2063637302228092E-06
  2.0642058640126366E-02  8.5576819808315066E-02  1.1951130049491768E-06
  2.0847709298063632E-02  8.5352662957491193E-02  1.1839646734085988E-06
  2.1055408792013213E-02  8.5115573256422619E-02  1.1729173916464946E-06
  2.1265177533915665E-02  8.4865366810827694E-02  1.1619697587188892E-06
  2.1477036139069580E-02  8.4647091148420395E-02  1.1511203445255771E-06
  2.1691005428157665E-02  8.4435604501304329E-02  1.1403677137160702E-06
  2.1907106429292809E-02  8.4248677891576862E-02  1.1297104607177967E-06
  2.2125360380084714E-02  8.4096092615646253E-02  1.1191472605512172E-06
  2.2345788729727069E-02  8.3915943503691290E-02  1.1086769199972128E-06
  2.2568413141105421E-02  8.3723078074701168E-02  1.0982984108545577E-06
  2.2793255492926209E-02  8.3517012956485823E-02  1.0880108761607517E-06
  2.3020337881866838E-02  8.3316977049517363E-02  1.0778136123994062E-06
  2.3249682624747355E-02  8.3098958760678215E-02  1.0677060376710516E-06
  2.3481312260723575E-02  8.2899051456820388E-02  1.0576876567861384E-06
  2.3715249553502168E-02  8.2677043585312263E-02  1.0477580305102501E-06
  2.3951517493577872E-02  8.2500470966311565E-02  1.0379167517999605E-06
  2.4190139300492779E-02  8.2294228136147340E-02  1.0281634283712641E-06
  2.4431138425118366E-02  8.2099595444980036E-02  1.0184976677775294E-06
  2.4674538551960151E-02  8.1896783286818500E-02  1.0089190532100599E-06
  2.4920363601485248E-02  8.1702112097293958E-02  9.9942710829668323E-07
  2.5168637732473294E-02  8.1506940176338985E-02  9.9002127032339773E-07
  2.5419385344390560E-02  8.1304123177966287E-02  9.8070088767871599E-07
  2.5672631079787962E-02  8.1097760248166284E-02  9.7146524243023773E-07
  2.5928399826722744E-02  8.0899430979149076E-02  9.6231358664130477E-07
  2.6186716721204414E-02  8.0697765373919733E-02  9.5324517792150505E-07
  2.6447607149665084E-02  8.0506683988110422E-02  9.4425930498032383E-07
  2.6711096751454239E-02  8.0307587600479791E-02  9.3535530081744008E-07
  2.6977211421358543E-02  8.0106180827367077E-02  9.2653254564777379E-07
  2.7245977312146723E-02  7.9916766169750825E-02  9.1779046363216160E-07
  2.7517420837139660E-02  7.9736133519021452E-02  9.0912851821451831E-07
  2.7791568672806310E-02  7.9556651345033494E-02  9.0054621498277975E-07
  2.8068447761385257E-02  7.9365576285760756E-02  8.9204311460289720E-07
  2.8348085313532608E-02  7.9173253244430405E-02  8.8361883725784428E-07
  2.8630508810996054E-02  7.8965164675049576E-02  8.7527304269246865E-07
  2.8915746009315728E-02  7.8757410881350937E-02  8.6700538710846932E-07
  2.9203824940551949E-02  7.8546694184868218E-02  8.5881547078391675E-07
  2.9494773916040024E-02  7.8361980363206768E-02  8.5070279506441986E-07
  2.9788621529172641E-02  7.8166104410512000E-02  8.4266673975270550E-07
  3.0085396658209931E-02  7.7995852666308790E-02  8.3470656105063490E-07
  3.0385128469117461E-02  7.7805172828343372E-02  8.2682140451687464E-07
  3.0687846418432640E-02  7.7617217968367277E-02  8.1901032587539753E-07
  3.0993580256159489E-02  7.7457107697369812E-02  8.1127231338053708E-07
  3.1302360028692487E-02  7.7279955804406747E-02  8.0360630449726448E-07
  3.1614216081769307E-02  7.7082713140923714E-02  7.9601119273327814E-07
  3.1929179063453147E-02  7.6885582226457014E-02  7.8848583856013000E-07
  3.2247279927144719E-02  7.6686663832808755E-02  7.8102910058751689E-07
  3.2568549934624179E-02  7.6484120242967191E-02  7.7363988771501201E-07
  3.2893020659123445E-02  7.6271208120280515E-02  7.6631722023854541E-07
  3.3220723988429159E-02  7.6091606950074414E-02  7.5906028088619740E-07
  3.3551692128016390E-02  7.5909629922260843E-02  7.5186844106889388E-07
  3.3885957604213729E-02  7.5727629102288599E-02  7.4474126118028864E-07
  3.4223553267399884E-02  7.5541048432789470E-02  7.3767847127961340E-07
  3.4564512295232053E-02  7.5349037838789018E-02  7.3067994105375782E-07
  3.4908868195906509E-02  7.5154577317673568E-02  7.2374564685827163E-07
  3.5256654811451626E-02  7.4951014531980317E-02  7.1687564265460233E-07
  3.5607906321053880E-02  7.4772513326534229E-02  7.1007004160882933E-07
  3.5962657244416669E-02  7.4587177436116023E-02  7.0332900337916347E-07
  3.6320942445152896E-02  7.4420882854363907E-02  6.9665271343085933E-07
  3.6682797134211270E-02  7.4270162944615387E-02  6.9004134782824292E-07
  3.7048256873336592E-02  7.4102362113961942E-02  6.8349502694954750E-07
  3.7417357578564701E-02  7.3918783858889905E-02  6.7701376941616011E-07
  3.7790135523752183E-02  7.3722710555395782E-02  6.7059746086229773E-07
  3.8166627344141224E-02  7.3524071743469671E-02  6.6424584244469440E-07
  3.8546870039959928E-02  7.3330083753609943E-02  6.5795851692153200E-07
  3.8930900980058622E-02  7.3133034679206010E-02  6.5173496665645852E-07
  3.9318757905582355E-02  7.2952552400416412E-02  6.4557457717294074E-07
  3.9710478933679877E-02  7.2770393289501786E-02  6.3947666075916589E-07
  4.0106102561249669E-02  7.2590457311186365E-02  6.3344047299308843E-07
  4.0505667668723391E-02  7.2411782115262668E-02  6.2746521875877853E-07
  4.0909213523886739E-02  7.2226750165748282E-02  6.2155005492798673E-07
  4.1316779785738604E-02  7.2051199061025056E-02  6.1569409857053807E-07
  4.1728406508388702E-02  7.1877418774891427E-02  6.0989644517723857E-07
  4.2144134144993843E-02  7.1709718235127021E-02  6.0415619518461802E-07
  4.2564003551733481E-02  7.1527477449451995E-02  5.9847248039401726E-07
  4.2988055991825015E-02  7.1340292230213972E-02  5.9284448375080362E-07
  4.3416333139578982E-02  7.1171507223854832E-02  5.8727145014100214E-07
  4.3848877084494538E-02  7.0989700713120218E-02  5.8175268833760329E-07
  4.4285730335395936E-02  7.0788878122429899E-02  5.7628756651573580E-07
  4.4726935824610230E-02  7.0604863356511241E-02  5.7087550433386702E-07
  4.5172536912186312E-02  7.0434752598650827E-02  5.6551596571817491E-07
  4.5622577390156273E-02  7.0258626626965970E-02  5.6020845733943366E-07
  4.6077101486839210E-02  7.0084708287885752E-02  5.5495253114246199E-07
  4.6536153871187688E-02  6.9897317961362032E-02  5.4974778477819777E-07
  4.6999779657177679E-02  6.9735162662903041E-02  5.4459385467468936E-07
  4.7468024408242195E-02  6.9576502150341654E-02  5.3949040076433753E-07
  4.7940934141749186E-02  6.9395958645897204E-02  5.3443708707434184E-07
  4.8418555333523794E-02  6.9226034477481282E-02  5.2943356386023772E-07
  4.8900934922415908E-02  6.9045153540708309E-02  5.2447945464864780E-07
  4.9388120314913235E-02  6.8856418783442397E-02  5.1957434988568008E-07
  4.9880159389800054E-02  6.8663504647672791E-02  5.1471780648831315E-07
  5.0377100502862669E-02  6.8489843013439605E-02  5.0990935128105466E-07
  5.0878992491641656E-02  6.8309030607573193E-02  5.0514848627954910E-07
  5.1385884680231426E-02  6.8126718534977149E-02  5.0043469320873461E-07
  5.1897826884127515E-02  6.7966463253903653E-02  4.9576743718859032E-07
  5.2414869415122370E-02  6.7806728914586029E-02  4.9114617247151872E-07
  5.2937063086249854E-02  6.7641105099973384E-02  4.8657035329947798E-07
  5.3464459216778809E-02  6.7461820610152559E-02  4.8203945035299406E-07
  5.3997109637256610E-02  6.7278294052700735E-02  4.7755296937173921E-07
  5.4535066694602959E-02  6.7109355033620338E-02  4.7311046657705933E-07
  5.5078383257254185E-02  6.6941478756317438E-02  4.6871155786137216E-07
  5.5627112720359022E-02  6.6757560631448581E-02  4.6435592052152992E-07
  5.6181309011026193E-02  6.6590143279090352E-02  4.6004328856401573E-07
  5.6741026593624094E-02  6.6414342547767166E-02  4.5577344413646014E-07
  5.7306320475133163E-02  6.6241018906783702E-02  4.5154620735137764E-07
  5.7877246210552104E-02  6.6067552412010094E-02  4.4736142629238210E-07
  5.8453859908357442E-02  6.5890843719527567E-02  4.4321896875918376E-07
  5.9036218236017610E-02  6.5725432976047687E-02  4.3911871672642586E-07
  5.9624378425562084E-02  6.5556249770566358E-02  4.3506056327703209E-07
  6.0218398279206060E-02  6.5398518625190555E-02  4.3104441026189161E-07
  6.0818336175030768E-02  6.5235532317446165E-02  4.2707016544521750E-07
  6.1424251072720863E-02  6.5072585555744175E-02  4.2313773999028688E-07
  6.2036202519358721E-02  6.4911905573899448E-02  4.1924704619631829E-07
  6.2654250655276564E-02  6.4754437763055603E-02  4.1539799536796277E-07
  6.3278456219966556E-02  6.4579130511371041E-02  4.1159049615061876E-07
  6.3908880558050454E-02  6.4403833205273486E-02  4.0782445331701443E-07
  6.4545585625308100E-02  6.4228302174945448E-02  4.0409976685417425E-07
  6.5188633994766196E-02  6.4040031052358254E-02  4.0041633130410872E-07
  6.5838088862847755E-02  6.3835132288061383E-02  3.9677403839118121E-07
  6.6494014055583028E-02  6.3668583179984875E-02  3.9317279253714736E-07
  6.7156474034881758E-02  6.3498784947279452E-02  3.8961254839467679E-07
  6.7825533904868437E-02  6.3331885032765531E-02  3.8609337149364602E-07
  6.8501259418280558E-02  6.3195323836452572E-02  3.8261551282960418E-07
  6.9183716982930521E-02  6.3035072723463523E-02  3.7917948028673357E-07
  6.9872973668231655E-02  6.2884415932683041E-02  3.7578608904986177E-07
  7.0569097211790069E-02  6.2716749207878411E-02  3.7243647938505647E-07
  7.1272156026061295E-02  6.2557153902118495E-02  3.6913210025213600E-07
  7.1982219205073653E-02  6.2379922605574296E-02  3.6587466635641433E-07
  7.2699356531218631E-02  6.2212033074580925E-02  3.6266610076514910E-07
  7.3423638482108894E-02  6.2040547330616834E-02  3.5950847480836895E-07
  7.4155136237504374E-02  6.1871336029803457E-02  3.5640395311394524E-07
  7.4893921686307707E-02  6.1706514957751590E-02  3.5335474155806360E-07
  7.5640067433629193E-02  6.1547488982706067E-02  3.5036303424312949E-07
  7.6393646807922239E-02  6.1375367509109519E-02  3.4743095640269091E-07
  7.7154733868189426E-02  6.1221842928962038E-02  3.4456050221744493E-07
  7.7923403411261249E-02  6.1059567855973482E-02  3.4175347308923508E-07
  7.8699730979146676E-02  6.0897907825765846E-02  3.3901143233517128E-07
  7.9483792866457029E-02  6.0737649840384135E-02  3.3633568176178475E-07
  8.0275666127903988E-02  6.0582191482859947E-02  3.3372726257730042E-07
  8.1075428585872453E-02  6.0417055822669832E-02  3.3118697822133981E-07
  8.1883158838068335E-02  6.0262647438910973E-02  3.2871543180898898E-07
  8.2698936265242981E-02  6.0111956810374713E-02  3.2631306931074990E-07
  8.3522841038994530E-02  5.9939190490058802E-02  3.2398022221706742E-07
  8.4354954129646775E-02  5.9788989287870090E-02  3.2171715903753776E-07
  8.5195357314206466E-02  5.9629827789349894E-02  3.1952416860209656E-07
  8.6044133184400379E-02  5.9475940070619522E-02  3.1740169178379528E-07
  8.6901365154791979E-02  5.9324730526472601E-02  3.1535050284072366E-07
  8.7767137470979015E-02  5.9168019492971763E-02  3.1337192322905178E-07
  8.8641535217872866E-02  5.9017340206758341E-02  3.1146802714536876E-07
  8.9524644328060635E-02  5.8872441580212972E-02  3.0964179791630359E-07
  9.0416551590249958E-02  5.8711580562990973E-02  3.0789720681825265E-07
  9.1317344657798366E-02  5.8558179744109588E-02  3.0623920510683356E-07
  9.2227112057327740E-02  5.8396989069374169E-02  3.0467364303065668E-07
  9.3145943197424197E-02  5.8230562274269634E-02  3.0320714422407705E-07
  9.4073928377424648E-02  5.8081334950564154E-02  3.0184696783887504E-07
  9.5011158796291545E-02  5.7930114130222948E-02  3.0060087736588084E-07
  9.5957726561575293E-02  5.7766020342057127E-02  2.9947700909643151E-07
  9.6913724698466194E-02  5.7626247225250816E-02  2.9848373449160570E-07
  9.7879247158936672E-02  5.7479695507288833E-02  2.9762950629959953E-07
  9.8854388830974735E-02  5.7339006298350120E-02  2.9692267852722890E-07
  9.9839245547908906E-02  5.7201962325705021E-02  2.9637132742932775E-07
  1.0083391409782647E-01  5.7067256242584359E-02  2.9598311260855770E-07
  1.0183849223308565E-01  5.6933428126979241E-02  2.9576519438423155E-07
  1.0285307867992206E-01  5.6809937356256959E-02  2.9572422550618803E-07
  1.0387777314815122E-01  5.6687734179428698E-02  2.9586641828192104E-07
  1.0491267634096788E-01  5.6547187769244930E-02  2.9619767125060501E-07
  1.0595788996484258E-01  5.6428290562188933E-02  2.9672373055409539E-07
  1.0701351673951694E-01  5.6298877447892845E-02  2.9745035657041679E-07
  1.0807966040809860E-01  5.6172772706859109E-02  2.9838347278558367E-07
  1.0915642574725699E-01  5.6043263086928155E-02  2.9952926767501027E-07
  1.1024391857751996E-01  5.5911740196718684E-02  3.0089423428867597E-07
  1.1134224577367360E-01  5.5770561586354475E-02  3.0248515291880755E-07
  1.1245151527526576E-01  5.5649504197467142E-02  3.0430902975977037E-07
  1.1357183609721368E-01  5.5514298236051550E-02  3.0637299427078782E-07
  1.1470331834051732E-01  5.5398472805170594E-02  3.0868419581346197E-07
  1.1584607320308032E-01  5.5272531074727495E-02  3.1124973222803341E-07
  1.1700021299063781E-01  5.5142014538945218E-02  3.1407662944877343E-07
  1.1816585112779300E-01  5.5034511729057524E-02  3.1717187620307456E-07
  1.1934310216916487E-01  5.4918971030783810E-02  3.2054250331239736E-07
  1.2053208181064579E-01  5.4816918898752544E-02  3.2419568651283692E-07
  1.2173290690077139E-01  5.4709277311460955E-02  3.2813884675387671E-07
  1.2294569545220467E-01  5.4594110475833700E-02  3.3237970731346134E-07
  1.2417056665333351E-01  5.4488267326152119E-02  3.3692626477168020E-07
  1.2540764087998352E-01  5.4371920713026024E-02  3.4178664865770378E-07
  1.2665703970724959E-01  5.4253507509513972E-02  3.4696886525522654E-07
  1.2791888592144221E-01  5.4130585095768693E-02  3.5248041582838696E-07
  1.2919330353215502E-01  5.4017095651326813E-02  3.5832783277391307E-07
  1.3048041778445313E-01  5.3898478859821450E-02  3.6451620372498019E-07
  1.3178035517117967E-01  5.3774126931390623E-02  3.7104875372331516E-07
  1.3309324344538884E-01  5.3657072552006149E-02  3.7792654048615423E-07
  1.3441921163290022E-01  5.3545662819070715E-02  3.8514828309756379E-07
  1.3575839004497867E-01  5.3417479882421244E-02  3.9271030081856454E-07
  1.3711091029114161E-01  5.3308456643853662E-02  4.0060652128717881E-07
  1.3847690529209281E-01  5.3190759509390423E-02  4.0882853251309043E-07
  1.3985650929278473E-01  5.3070749985427476E-02  4.1736563736284386E-07
  1.4124985787561262E-01  5.2935405152799028E-02  4.2620491546449284E-07
  1.4265708797373863E-01  5.2820075972648262E-02  4.3533134730732567E-07
  1.4407833788454863E-01  5.2696957666253874E-02  4.4472797944408388E-07
  1.4551374728324434E-01  5.2580596536693586E-02  4.5437610619274164E-07
  1.4696345723656984E-01  5.2456632268145606E-02  4.6425548237044480E-07
  1.4842761021667447E-01  5.2338962154955829E-02  4.7434452313993905E-07
  1.4990635011511555E-01  5.2217886551715734E-02  4.8462043790503745E-07
  1.5139982225699888E-01  5.2094953565476353E-02  4.9505925744931545E-07
  1.5290817341526025E-01  5.1976586651118782E-02  5.0563574446639004E-07
  1.5443155182509141E-01  5.1846488457879404E-02  5.1632321855544745E-07
  1.5597010719850604E-01  5.1733595115637548E-02  5.2709333784945152E-07
  1.5752399073905388E-01  5.1609180256858116E-02  5.3791592149642485E-07
  1.5909335515668133E-01  5.1481662079280531E-02  5.4875888510031547E-07
  1.6067835468273725E-01  5.1356064475807331E-02  5.5958833027765319E-07
  1.6227914508513194E-01  5.1228195187823275E-02  5.7036883277529031E-07
  1.6389588368364477E-01  5.1094478442414382E-02  5.8106398468593092E-07
