 #p(MeV) \t \delta f_\\nu \t \delta f_\\nubar
  7.0465994282261093E+00  3.4134434702493842E-13  3.3081497663714964E-13
  7.1168025912874784E+00  3.3601228870606367E-13  3.2558260623491380E-13
  7.1877051674705941E+00  3.3077417576898716E-13  3.2044266525857229E-13
  7.2593141248192614E+00  3.2562831943993773E-13  3.1539348771122073E-13
  7.3316365007978064E+00  3.2057276275471957E-13  3.1043314755518144E-13
  7.4046794029827208E+00  3.1560556040403082E-13  3.0555973073626466E-13
  7.4784500097611488E+00  3.1072481649595769E-13  3.0077137187042847E-13
  7.5529555710363550E+00  3.0592868306916862E-13  2.9606625278048319E-13
  7.6282034089402364E+00  3.0121535868151998E-13  2.9144260110659838E-13
  7.7042009185528855E+00  2.9658308706958451E-13  2.8689868898620649E-13
  7.7809555686293805E+00  2.9203015587486870E-13  2.8243283179914055E-13
  7.8584749023337608E+00  2.8755489543272540E-13  2.7804338697408194E-13
  7.9367665379803567E+00  2.8315567762018158E-13  2.7372875285261163E-13
  8.0158381697824961E+00  2.7883091475912891E-13  2.6948736760736928E-13
  8.0956975686086352E+00  2.7457905857151736E-13  2.6531770821102361E-13
  8.1763525827460910E+00  2.7039863409055681E-13  2.6121832325027765E-13
  8.2578111386723041E+00  2.6628837566590346E-13  2.5718796452163252E-13
  8.3400812418338397E+00  2.6224709532869455E-13  2.5322545944426772E-13
  8.4231709774331449E+00  2.5827362487523547E-13  2.4932965495805865E-13
  8.5070885112231078E+00  2.5436681549471980E-13  2.4549941715718768E-13
  8.5918420903095871E+00  2.5052553743806823E-13  2.4173363096364218E-13
  8.6774400439618766E+00  2.4674867970481569E-13  2.3803119981824486E-13
  8.7638907844312879E+00  2.4303514974665617E-13  2.3439104538785065E-13
  8.8512028077778950E+00  2.3938387318636233E-13  2.3081210728745358E-13
  8.9393846947054545E+00  2.3579379355086552E-13  2.2729334281601587E-13
  9.0284451114047339E+00  2.3226387201736950E-13  2.2383372670491196E-13
  9.1183928104051475E+00  2.2879308717143698E-13  2.2043225087795189E-13
  9.2092366314349476E+00  2.2538044145241739E-13  2.1708793069028502E-13
  9.3009855022899650E+00  2.2202505926195832E-13  2.1379989998887083E-13
  9.3936484397109794E+00  2.1872615843081576E-13  2.1056738337350058E-13
  9.4872345502698732E+00  2.1548296350427620E-13  2.0738961210820640E-13
  9.5817530312645722E+00  2.1229470344762236E-13  2.0426582189926312E-13
  9.6772131716229328E+00  2.0916061187166776E-13  2.0119525311642394E-13
  9.7736243528156326E+00  2.0607992726106120E-13  1.9817715101654213E-13
  9.8709960497781175E+00  2.0305189320418127E-13  1.9521076596842805E-13
  9.9693378318418038E+00  2.0007575862354624E-13  1.9229535367789329E-13
  1.0068659363674477E+01  1.9715077800575525E-13  1.8943017541201451E-13
  1.0168970406230125E+01  1.9427621163006312E-13  1.8661449822175229E-13
  1.0270280817708208E+01  1.9145132579477955E-13  1.8384759516212397E-13
  1.0372600554522471E+01  1.8867539136038613E-13  1.8112874389181476E-13
  1.0475939672279427E+01  1.8594754641628718E-13  1.7845709433951052E-13
  1.0580308326766609E+01  1.8326670336018723E-13  1.7583157928889689E-13
  1.0685716774950601E+01  1.8063177956619622E-13  1.7325113689162640E-13
  1.0792175375985101E+01  1.7804172200042161E-13  1.7071473439576935E-13
  1.0899694592228938E+01  1.7549550628892176E-13  1.6822136722970807E-13
  1.1008284990274312E+01  1.7299213583067877E-13  1.6577005813003567E-13
  1.1117957241985206E+01  1.7053064095311916E-13  1.6335985631103316E-13
  1.1228722125546192E+01  1.6811007810783348E-13  1.6098983667342431E-13
  1.1340590526521691E+01  1.6572952910428708E-13  1.5865909905023031E-13
  1.1453573438925732E+01  1.6338810037941656E-13  1.5636676748766662E-13
  1.1567681966302413E+01  1.6108492230113064E-13  1.5411198955912997E-13
  1.1682927322817138E+01  1.5881914850512935E-13  1.5189393571165763E-13
  1.1799320834358674E+01  1.5659000091055300E-13  1.4971184238749626E-13
  1.1916873939652248E+01  1.5439690844375681E-13  1.4756514492130943E-13
  1.2035598191383661E+01  1.5223935663718633E-13  1.4545333315417245E-13
  1.2155505257334696E+01  1.5011683632768864E-13  1.4337590220001419E-13
  1.2276606921529735E+01  1.4802884365639161E-13  1.4133235244505305E-13
  1.2398915085393879E+01  1.4597488007316614E-13  1.3932218955155901E-13
  1.2522441768922574E+01  1.4395445234489000E-13  1.3734492446518196E-13
  1.2647199111862880E+01  1.4196707256699111E-13  1.3540007342533965E-13
  1.2773199374906524E+01  1.4001225817778147E-13  1.3348715797818118E-13
  1.2900454940894852E+01  1.3808953197513289E-13  1.3160570499169529E-13
  1.3028978316035735E+01  1.3619842213507683E-13  1.2975524667255068E-13
  1.3158782131132684E+01  1.3433846223194285E-13  1.2793532058429442E-13
  1.3289879142826086E+01  1.3250918866952771E-13  1.2614546722752552E-13
  1.3422282234846966E+01  1.3071011973147827E-13  1.2438521032813802E-13
  1.3556004419283084E+01  1.2894076785441401E-13  1.2265406844035320E-13
  1.3691058837857733E+01  1.2720065269553299E-13  1.2095156725540386E-13
  1.3827458763221291E+01  1.2548930116337680E-13  1.1927723962569450E-13
  1.3965217600255562E+01  1.2380624732992713E-13  1.1763062547767684E-13
  1.4104348887391177E+01  1.2215103234478851E-13  1.1601127172672018E-13
  1.4244866297938129E+01  1.2052320435132086E-13  1.1441873219384724E-13
  1.4386783641429478E+01  1.1892231840459894E-13  1.1285256752421138E-13
  1.4530114864978561E+01  1.1734793639107977E-13  1.1131234510720183E-13
  1.4674874054649607E+01  1.1579962694987019E-13  1.0979763899807019E-13
  1.4821075436842118E+01  1.1427696539549389E-13  1.0830802984098141E-13
  1.4968733379688945E+01  1.1277953249398813E-13  1.0684310370113574E-13
  1.5117862394468339E+01  1.1130685862221264E-13  1.0540239896572859E-13
  1.5268477137030114E+01  1.0985840226755399E-13  1.0398538600821375E-13
  1.5420592409235894E+01  1.0843362930646414E-13  1.0259154265922884E-13
  1.5574223160413839E+01  1.0703201925582620E-13  1.0122036014403171E-13
  1.5729384488827810E+01  1.0565306488562441E-13  9.9871342702219712E-14
  1.5886091643161127E+01  1.0429627184446860E-13  9.8544007220050105E-14
  1.6044360024015219E+01  1.0296115829750178E-13  9.7237882874897597E-14
  1.6204205185423056E+01  1.0164725457624040E-13  9.5952510791406048E-14
  1.6365642836377841E+01  1.0035410283990797E-13  9.4687443708903237E-14
  1.6528688842376738E+01  9.9081256747848197E-14  9.3442245659671588E-14
  1.6693359226980114E+01  9.7828281142614956E-14  9.2216491657677178E-14
  1.6859670173386320E+01  9.6594751746881065E-14  9.1009767400734909E-14
  1.7027638026022029E+01  9.5380284590105386E-14  8.9821697067155987E-14
  1.7197279292148554E+01  9.4184605458512382E-14  8.8652008850785310E-14
  1.7368610643484150E+01  9.3007464987747079E-14  8.7500454566350368E-14
  1.7541648917842373E+01  9.1848616093981245E-14  8.6366788298222870E-14
  1.7716411120786923E+01  9.0707813999725554E-14  8.5250766424882191E-14
  1.7892914427302799E+01  8.9584816258228202E-14  8.4152147641939675E-14
  1.8071176183484290E+01  8.8479382776471210E-14  8.3070692983742499E-14
  1.8251213908239599E+01  8.7391275836787094E-14  8.2006165843572623E-14
  1.8433045295012576E+01  8.6320260117111787E-14  8.0958331992461481E-14
  1.8616688213521588E+01  8.5266102709896554E-14  7.9926959596642745E-14
  1.8802160711515633E+01  8.4228573139702996E-14  7.8911819233664685E-14
  1.8989481016548048E+01  8.3207443379501146E-14  7.7912683907184837E-14
  1.9178667537767843E+01  8.2202481218583090E-14  7.6929322801527401E-14
  1.9369738867728852E+01  8.1213396605113247E-14  7.5961450809375684E-14
  1.9562713784216992E+01  8.0239872938696292E-14  7.5008758104160497E-14
  1.9757611252095614E+01  7.9281600580022041E-14  7.4070941706255400E-14
  1.9954450425169370E+01  7.8338276989658070E-14  7.3147705606172848E-14
  2.0153250648066503E+01  7.7409606544900170E-14  7.2238760584786955E-14
  2.0354031458140017E+01  7.6495300362114270E-14  7.1343824038942246E-14
  2.0556812587387739E+01  7.5595076124390242E-14  7.0462619812266660E-14
  2.0761613964391469E+01  7.4708657914328311E-14  6.9594878031017495E-14
  2.0968455716275500E+01  7.3835776051788662E-14  6.8740334944790492E-14
  2.1177358170684684E+01  7.2976166936440679E-14  6.7898732771932462E-14
  2.1388341857782088E+01  7.2129572894953085E-14  6.7069819549501674E-14
  2.1601427512266653E+01  7.1295742104542516E-14  6.6253349063326426E-14
  2.1816636075410944E+01  7.0474434169329964E-14  6.5449086256080206E-14
  2.2033988697119170E+01  6.9665422500465070E-14  6.4656809438086229E-14
  2.2253506738005687E+01  6.8868485739249546E-14  6.3876302038637320E-14
  2.2475211771494255E+01  6.8083406966157789E-14  6.3107351850603924E-14
  2.2699125585938258E+01  6.7309973603582537E-14  6.2349750934920952E-14
  2.2925270186761875E+01  6.6547977321195164E-14  6.1603295527627714E-14
  2.3153667798622759E+01  6.5797213943835380E-14  6.0867785949377538E-14
  2.3384340867596208E+01  6.5057483361852183E-14  6.0143026517340391E-14
  2.3617312063381036E+01  6.4328589443819214E-14  5.9428825459423298E-14
  2.3852604281527469E+01  6.3610339951551099E-14  5.8724994830734448E-14
  2.4090240645687285E+01  6.2902546457347699E-14  5.8031350432221942E-14
  2.4330244509886299E+01  6.2205024273265097E-14  5.7347711740213272E-14
  2.4572639460819463E+01  6.1517592785978676E-14  5.6673902098242791E-14
  2.4817449320168929E+01  6.0840074212240056E-14  5.6009747395553747E-14
  2.5064698146945176E+01  6.0172293912856594E-14  5.5355076593058971E-14
  2.5314410239851384E+01  5.9514080783317006E-14  5.4709722122911232E-14
  2.5566610139671425E+01  5.8865267173129352E-14  5.4073519809310598E-14
  2.5821322631681721E+01  5.8225688807354116E-14  5.3446308791461102E-14
  2.6078572748086955E+01  5.7595184710263902E-14  5.2827931448611591E-14
  2.6338385770480155E+01  5.6973597131064189E-14  5.2218233327113020E-14
  2.6600787232327352E+01  5.6360771471610148E-14  5.1617063069431091E-14
  2.6865802921476867E+01  5.5756556216059292E-14  5.1024272345053737E-14
  2.7133458882693585E+01  5.5160802862400023E-14  5.0439715783234401E-14
  2.7403781420218625E+01  5.4573365855798159E-14  4.9863250907514620E-14
  2.7676797100354435E+01  5.3994103259197301E-14  4.9294738758803168E-14
  2.7952532754075531E+01  5.3422881706512428E-14  4.8734048485920289E-14
  2.8231015479665412E+01  5.2859572986428938E-14  4.8181054147185525E-14
  2.8512272645379728E+01  5.2304051205626091E-14  4.7635632077404916E-14
  2.8796331892135825E+01  5.1756192729402335E-14  4.7097660830351557E-14
  2.9083221136229231E+01  5.1215876137391233E-14  4.6567021135156565E-14
  2.9372968572077227E+01  5.0682982180255175E-14  4.6043595853660832E-14
  2.9665602674989632E+01  5.0157393737335711E-14  4.5527269938705061E-14
  2.9961152203967238E+01  4.9638995775233448E-14  4.5017930393333810E-14
  3.0259646204528156E+01  4.9127675307297582E-14  4.4515466230891204E-14
  3.0561114011562367E+01  4.8623321354000940E-14  4.4019768435986789E-14
  3.0865585252214530E+01  4.8125824904179836E-14  4.3530729926309644E-14
  3.1173089848795691E+01  4.7635078161127127E-14  4.3048244861115867E-14
  3.1483658021723983E+01  4.7150957437829734E-14  4.2572193039256986E-14
  3.1797320292494479E+01  4.6673323190685515E-14  4.2102439996844911E-14
  3.2114107486678783E+01  4.6202038341365534E-14  4.1638853752948642E-14
  3.2434050736954475E+01  4.5736969089260532E-14  4.1181305545950128E-14
  3.2757181486164718E+01  4.5277984826139929E-14  4.0729669750201707E-14
  3.3083531490408255E+01  4.4824958053525540E-14  4.0283823795320047E-14
  3.3413132822160364E+01  4.4377764302685855E-14  3.9843648088024170E-14
  3.3746017873424847E+01  4.3936282057161133E-14  3.9409025936429869E-14
  3.4082219358917300E+01  4.3500392677732122E-14  3.8979843476713976E-14
  3.4421770319280270E+01  4.3069980329748286E-14  3.8555989602066530E-14
  3.4764704124330372E+01  4.2644931912734658E-14  3.8137355893850888E-14
  3.5111054476337685E+01  4.2225137016391045E-14  3.7723836577423103E-14
  3.5460855413337924E+01  4.1810498166435716E-14  3.7315337836867887E-14
  3.5814141312477609E+01  4.1400945637922095E-14  3.6911791195316870E-14
  3.6170946893392525E+01  4.0996414614141863E-14  3.6513132701085537E-14
  3.6531307221619684E+01  4.0596841123811958E-14  3.6119299235993282E-14
  3.6895257712043659E+01  4.0202162030989817E-14  3.5730228505360843E-14
  3.7262834132376938E+01  3.9812315025336997E-14  3.5345859028319346E-14
  3.7634072606674962E+01  3.9427238612716842E-14  3.4966130128415597E-14
  3.8009009618886367E+01  3.9046872106109677E-14  3.4590981924497877E-14
  3.8387682016438497E+01  3.8671155616831238E-14  3.4220355321867869E-14
  3.8770127013858541E+01  3.8300030046039847E-14  3.3854192003684137E-14
  3.9156382196430904E+01  3.7933437076519522E-14  3.3492434422604590E-14
  3.9546485523890965E+01  3.7571319164725201E-14  3.3135025792653734E-14
  3.9940475334155636E+01  3.7213618564892438E-14  3.2781909149714191E-14
  4.0338390347090900E+01  3.6860270684048493E-14  3.2433021163190664E-14
  4.0740269668317296E+01  3.6511208643902290E-14  3.2088296463240053E-14
  4.1146152793052977E+01  3.6166366784517030E-14  3.1747670877015840E-14
  4.1556079609995074E+01  3.5825680648713169E-14  3.1411081412611282E-14
  4.1970090405239887E+01  3.5489086956117816E-14  3.1078466233721617E-14
  4.2388225866242138E+01  3.5156523578091957E-14  3.0749764635138603E-14
  4.2810527085813384E+01  3.4827929513503928E-14  3.0424917019044298E-14
  4.3237035566160614E+01  3.4503244865317854E-14  3.0103864872074792E-14
  4.3667793222964924E+01  3.4182410817966384E-14  2.9786550743123206E-14
  4.4102842389500822E+01  3.3865369615480789E-14  2.9472918221854815E-14
  4.4542225820796453E+01  3.3552064540349134E-14  2.9162911917905768E-14
  4.4985986697835656E+01  3.3242439323484514E-14  2.8856476959782861E-14
  4.5434168631801477E+01  3.2936429920532294E-14  2.8553552033592518E-14
  4.5886815668362061E+01  3.2633966656592371E-14  2.8254071235072193E-14
  4.6343972291999435E+01  3.2334981188188763E-14  2.7957969999906120E-14
  4.6805683430381237E+01  3.2039406668841400E-14  2.7665185241189065E-14
  4.7271994458775971E+01  3.1747177714401966E-14  2.7375655315621183E-14
  4.7742951204512387E+01  3.1458230369555020E-14  2.7089319990803410E-14
  4.8218599951483228E+01  3.1172502075440951E-14  2.6806120413591719E-14
  4.8698987444693870E+01  3.0889931638361569E-14  2.6525999079470857E-14
  4.9184160894856042E+01  3.0610459199528754E-14  2.6248899802908424E-14
  4.9674167983027829E+01  3.0334026205818401E-14  2.5974767688652266E-14
  5.0169056865299403E+01  3.0060575381493605E-14  2.5703549103934966E-14
  5.0668876177525640E+01  2.9790050790630543E-14  2.5435191727273737E-14
  5.1173675040105863E+01  2.9522408284348509E-14  2.5169653446004832E-14
  5.1683503062811340E+01  2.9257625040698115E-14  2.4906910453854274E-14
  5.2198410349660584E+01  2.8995680677714769E-14  2.4646941034759612E-14
  5.2718447503843443E+01  2.8736554789644106E-14  2.4389723445119284E-14
  5.3243665632694302E+01  2.8480226952607224E-14  2.4135235919308921E-14
  5.3774116352714607E+01  2.8226676730376612E-14  2.3883456675270524E-14
  5.4309851794645482E+01  2.7975883680249931E-14  2.3634363920160687E-14
  5.4850924608591129E+01  2.7727827359009379E-14  2.3387935856045997E-14
  5.5397387969193019E+01  2.7482487328954237E-14  2.3144150685633549E-14
  5.5949295580855605E+01  2.7239843163996135E-14  2.2902986618025387E-14
  5.6506701683024247E+01  2.6999874455805903E-14  2.2664421874486396E-14
  5.7069661055515802E+01  2.6762560820001966E-14  2.2428434694215037E-14
  5.7638229023901950E+01  2.6527878103409074E-14  2.2195000129638890E-14
  5.8212461464946486E+01  2.6295783447009942E-14  2.1964077428923411E-14
  5.8792414812096787E+01  2.6066228946299073E-14  2.1735621686568390E-14
  5.9378146061029796E+01  2.5839167722795365E-14  2.1509589010530908E-14
  5.9969712775253171E+01  2.5614553903112613E-14  2.1285936501545567E-14
  6.0567173091762783E+01  2.5392342596091870E-14  2.1064622230841566E-14
  6.1170585726755938E+01  2.5172489870747155E-14  2.0845605218620207E-14
  6.1780009981401840E+01  2.4954952734993382E-14  2.0628845413261190E-14
  6.2395505747669489E+01  2.4739689115127771E-14  2.0414303671229741E-14
  6.3017133514213747E+01  2.4526657836036245E-14  2.0201941737656262E-14
  6.3644954372319788E+01  2.4315818602098414E-14  1.9991722227561804E-14
  6.4279030021906962E+01  2.4107131978763785E-14  1.9783608607703459E-14
  6.4919422777592615E+01  2.3900559963614666E-14  1.9577565668118470E-14
  6.5566195574815836E+01  2.3696073677223752E-14  1.9373565894292439E-14
  6.6219411976022698E+01  2.3493650886071618E-14  1.9171587353895889E-14
  6.6879136176912994E+01  2.3293269782657044E-14  1.8971608508658743E-14
  6.7545433012749058E+01  2.3094908830483598E-14  1.8773608084659867E-14
  6.8218367964727534E+01  2.2898546759920519E-14  1.8577565068250180E-14
  6.8898007166414587E+01  2.2704162564269917E-14  1.8383458702159897E-14
  6.9584417410245464E+01  2.2511735496031080E-14  1.8191268481780915E-14
  7.0277666154088365E+01  2.2321245063352876E-14  1.8000974151615198E-14
  7.0977821527874056E+01  2.2132671026665680E-14  1.7812555701880625E-14
  7.1684952340291503E+01  2.1945993395484632E-14  1.7625993365266112E-14
  7.2399128085550117E+01  2.1761192425376093E-14  1.7441267613828118E-14
  7.3120418950209071E+01  2.1578248609366036E-14  1.7258359151172993E-14
  7.3848895820075526E+01  2.1397142340273841E-14  1.7077248652452158E-14
  7.4584630287170711E+01  2.1217853795031759E-14  1.6897916697613256E-14
  7.5327694656765516E+01  2.1040363383214992E-14  1.6720344103121205E-14
  7.6078161954486873E+01  2.0864651771036354E-14  1.6544511935227571E-14
  7.6836105933494181E+01  2.0690699877644488E-14  1.6370401506254087E-14
  7.7601601081727324E+01  2.0518488871525190E-14  1.6197994370969459E-14
  7.8374722629227435E+01  2.0348000167001970E-14  1.6027272323055243E-14
  7.9155546555530094E+01  2.0179215420832884E-14  1.5858217391658191E-14
  7.9944149597131911E+01  2.0012116528900836E-14  1.5690811838025878E-14
  8.0740609255032894E+01  1.9846685622993294E-14  1.5525038152221776E-14
  8.1545003802351829E+01  1.9682905067670049E-14  1.5360879049918007E-14
  8.2357412292019120E+01  1.9520757457195730E-14  1.5198317469248606E-14
  8.3177914564546455E+01  1.9360225719277131E-14  1.5037336651353928E-14
  8.4006591255872053E+01  1.9201293399261835E-14  1.4877920348161480E-14
  8.4843523805286182E+01  1.9043944331489750E-14  1.4720052568127378E-14
  8.5688794463434462E+01  1.8888162550206704E-14  1.4563717511857286E-14
  8.6542486300400810E+01  1.8733932287089457E-14  1.4408899569538213E-14
  8.7404683213871820E+01  1.8581237968793713E-14  1.4255583318392851E-14
  8.8275469937381615E+01  1.8430064214552803E-14  1.4103753520178818E-14
  8.9154932048638997E+01  1.8280395833826110E-14  1.3953395118731549E-14
  9.0043155977938056E+01  1.8132217823995419E-14  1.3804493237549590E-14
  9.0940229016652154E+01  1.7985515368108989E-14  1.3657033177421362E-14
  9.1846239325812192E+01  1.7840273832671941E-14  1.3511000414092347E-14
  9.2761275944771299E+01  1.7696478765482002E-14  1.3366380595971282E-14
  9.3685428799955119E+01  1.7554115926367283E-14  1.3223159565340685E-14
  9.4618788713699061E+01  1.7413171591564188E-14  1.3081323581782510E-14
  9.5561447413174605E+01  1.7273632408530222E-14  1.2940859215292849E-14
  9.6513497539403616E+01  1.7135485182996061E-14  1.2801753184080622E-14
  9.7475032656362345E+01  1.6998716873826069E-14  1.2663992349977147E-14
  9.8446147260177696E+01  1.6863314591495442E-14  1.2527563716751291E-14
  9.9426936788412590E+01  1.6729265596598979E-14  1.2392454428449454E-14
  1.0041749762944589E+02  1.6596557298389857E-14  1.2258651767759320E-14
  1.0141792713194560E+02  1.6465177253348431E-14  1.2126143154397043E-14
  1.0242832361443476E+02  1.6335113163781227E-14  1.1994916143517672E-14
  1.0344878637495478E+02  1.6206352876448654E-14  1.1864958424147524E-14
  1.0447941570082386E+02  1.6078884381222020E-14  1.1736257817638711E-14
