 #p(MeV) \t \delta f_\\nu \t \delta f_\\nubar
  1.0346162844632592E+00  1.7429537583214279E-07  1.1548700248921148E-07
  1.0449238571391202E+00  1.7050297891046772E-07  1.1342856526392268E-07
  1.0553341210794269E+00  1.6679779462580663E-07  1.1140533368747350E-07
  1.0658480993665420E+00  1.6317766038723061E-07  1.0941674230416122E-07
  1.0764668252754892E+00  1.5964047325493181E-07  1.0746223451850675E-07
  1.0871913423755046E+00  1.5618419048936274E-07  1.0554126467533099E-07
  1.0980227046325912E+00  1.5280682499053692E-07  1.0365329537075747E-07
  1.1089619765131000E+00  1.4950644537409839E-07  1.0179779795987723E-07
  1.1200102330883437E+00  1.4628117309746909E-07  9.9974251942553676E-08
  1.1311685601402468E+00  1.4312917959146166E-07  9.8182144131701029E-08
  1.1424380542680563E+00  1.4004868478121725E-07  9.6420968574744376E-08
  1.1538198229961085E+00  1.3703795566146140E-07  9.4690226478243281E-08
  1.1653149848826729E+00  1.3409530491865078E-07  9.2989426132593886E-08
  1.1769246696298830E+00  1.3121908959827817E-07  9.1318082836832027E-08
  1.1886500181947537E+00  1.2840770981567412E-07  8.9675718823559650E-08
  1.2004921829013169E+00  1.2565960750811045E-07  8.8061863183428284E-08
  1.2124523275538612E+00  1.2297326502798783E-07  8.6476051599419223E-08
  1.2245316275513103E+00  1.2034720261069684E-07  8.4917824959767821E-08
  1.2367312700027373E+00  1.1777998348316233E-07  8.3386734264919830E-08
  1.2490524538440257E+00  1.1527021912792630E-07  8.1882345272068464E-08
  1.2614963899557015E+00  1.1281655864192698E-07  8.0404231335891816E-08
  1.2740643012819286E+00  1.1041768492986878E-07  7.8951971414685406E-08
  1.2867574229506988E+00  1.0807231376650698E-07  7.7525150020402287E-08
  1.2995770023952162E+00  1.0577919290630116E-07  7.6123357180352105E-08
  1.3125242994764865E+00  1.0353710121989427E-07  7.4746188398091781E-08
  1.3256005866071361E+00  1.0134484785649741E-07  7.3393244613545707E-08
  1.3388071488764570E+00  9.9201271431309699E-08  7.2064132162397436E-08
  1.3521452841767001E+00  9.7105239237259383E-08  7.0758462734926203E-08
  1.3656163033306319E+00  9.5055646520444493E-08  6.9475853373154173E-08
  1.3792215302203510E+00  9.3051416455037274E-08  6.8215927115965818E-08
  1.3929623019174000E+00  9.1091496300642967E-08  6.6978310421307007E-08
  1.4068399688141635E+00  8.9174846068394469E-08  6.5762624937787793E-08
  1.4208558947565824E+00  8.7300444606002592E-08  6.4568492916718637E-08
  1.4350114571781880E+00  8.5467296567903280E-08  6.3395542599153732E-08
  1.4493080472354674E+00  8.3674432096527151E-08  6.2243408397712576E-08
  1.4637470699445871E+00  8.1920906104831775E-08  6.1111730800129211E-08
  1.4783299443194668E+00  8.0205797581160040E-08  6.0000156274165988E-08
  1.4930581035112382E+00  7.8528208915655163E-08  5.8908337173874932E-08
  1.5079329949490909E+00  7.6887265247494994E-08  5.7835931647191515E-08
  1.5229560804825168E+00  7.5282113832227299E-08  5.6782603544839235E-08
  1.5381288365249770E+00  7.3711923422027208E-08  5.5748022324201607E-08
  1.5534527541990004E+00  7.2175883445546394E-08  5.4731862743845943E-08
  1.5689293394827211E+00  7.0673203283047702E-08  5.3733804615010493E-08
  1.5845601133578866E+00  6.9203113552897713E-08  5.2753534276078055E-08
  1.6003466119593266E+00  6.7764865417261173E-08  5.1790744359609566E-08
  1.6162903867259268E+00  6.6357728694627643E-08  5.0845132662728668E-08
  1.6323930045530919E+00  6.4980991216579229E-08  4.9916401966295332E-08
  1.6486560479467365E+00  6.3633958343412613E-08  4.9004259958889365E-08
  1.6650811151788119E+00  6.2315952494109746E-08  4.8108419161817301E-08
  1.6816698204443716E+00  6.1026312690159150E-08  4.7228596855114293E-08
  1.6984237940202125E+00  5.9764394112776632E-08  4.6364515004530104E-08
  1.7153446824250931E+00  5.8529567673092693E-08  4.5515900189489949E-08
  1.7324341485815440E+00  5.7321219596222827E-08  4.4682483533325171E-08
  1.7496938719792983E+00  5.6138751065685837E-08  4.3864000681453413E-08
  1.7671255488403395E+00  5.4981577939538299E-08  4.3060191831554156E-08
  1.7847308922856073E+00  5.3849131504062173E-08  4.2270802610764917E-08
  1.8025116325033512E+00  5.2740858423308206E-08  4.1495584255223279E-08
  1.8204695169191676E+00  5.1656218631464094E-08  4.0734292116878615E-08
  1.8386063103677346E+00  5.0594684855173433E-08  3.9986685480809406E-08
  1.8569237952662485E+00  4.9555742293637968E-08  3.9252527514637425E-08
  1.8754237717895947E+00  4.8538888300921265E-08  3.8531585213725716E-08
  1.8941080580472651E+00  4.7543632077098607E-08  3.7823629346933796E-08
  1.9129784902620295E+00  4.6569494367979544E-08  3.7128434402931786E-08
  1.9320369229504004E+00  4.5616007173139631E-08  3.6445778537072327E-08
  1.9512852291048783E+00  4.4682713461801517E-08  3.5775443518617852E-08
  1.9707253003780334E+00  4.3769166884946195E-08  3.5117214667196065E-08
  1.9903590472684021E+00  4.2874931652859524E-08  3.4470880938570361E-08
  2.0101883993082446E+00  4.1999582930366588E-08  3.3836235457371915E-08
  2.0302153052531784E+00  4.1142709509969801E-08  3.3213077652453573E-08
  2.0504417332736877E+00  4.0303913601697183E-08  3.2601213162005348E-08
  2.0708696711485497E+00  3.9482806467745829E-08  3.2000450692371679E-08
  2.0915011264601913E+00  3.8679007864052206E-08  3.1410601725089053E-08
  2.1123381267919781E+00  3.7892145850343313E-08  3.0831480490948291E-08
  2.1333827199274866E+00  3.7121856604632493E-08  3.0262903943849412E-08
  2.1546369740517446E+00  3.6367784242048839E-08  2.9704691734468179E-08
  2.1761029779544936E+00  3.5629580637888575E-08  2.9156666183750957E-08
  2.1977828412354592E+00  3.4906905254784628E-08  2.8618652256257915E-08
  2.2196786945116775E+00  3.4199424974269204E-08  2.8090477533737472E-08
  2.2417926896268905E+00  3.3506813832508099E-08  2.7571972093223084E-08
  2.2641269998630094E+00  3.2828752006826354E-08  2.7062967697023007E-08
  2.2866838201537063E+00  3.2164921704186950E-08  2.6563294567560781E-08
  2.3094653673001231E+00  3.1515004007171281E-08  2.6072779179970298E-08
  2.3324738801887239E+00  3.0878686209412115E-08  2.5591250127670676E-08
  2.3557116200113346E+00  3.0255663298487460E-08  2.5118539352313379E-08
  2.3791808704873532E+00  2.9645637748546825E-08  2.4654482075604819E-08
  2.4028839380881974E+00  2.9048319318384450E-08  2.4198916732070479E-08
  2.4268231522639661E+00  2.8463424855474386E-08  2.3751684903259317E-08
  2.4510008656723712E+00  2.7890678105775295E-08  2.3312631253356435E-08
  2.4754194544099564E+00  2.7329809529119389E-08  2.2881603466172787E-08
  2.5000813182455990E+00  2.6780556120510690E-08  2.2458452183972244E-08
  2.5249888808563563E+00  2.6242661287939123E-08  2.2043030997330828E-08
  2.5501445900656603E+00  2.5715875189409229E-08  2.1635196863149232E-08
  2.5755509180838696E+00  2.5199956974369733E-08  2.1234812105268365E-08
  2.6012103617512414E+00  2.4694679250761696E-08  2.0841748002960200E-08
  2.6271254427833002E+00  2.4199822499859094E-08  2.0455880255755344E-08
  2.6532987080186730E+00  2.3715171700498275E-08  2.0077086359902340E-08
  2.6797327296693751E+00  2.3240516194985377E-08  1.9705245558569685E-08
  2.7064301055736015E+00  2.2775649603042641E-08  1.9340238827830889E-08
  2.7333934594510354E+00  2.2320369737406114E-08  1.8981948862395280E-08
  2.7606254411606908E+00  2.1874478521042373E-08  1.8630260061100191E-08
  2.7881287269613351E+00  2.1437781905952221E-08  1.8285058512179574E-08
  2.8159060197745052E+00  2.1010089793463595E-08  1.7946231978258125E-08
  2.8439600494501320E+00  2.0591215940482636E-08  1.7613669865986128E-08
  2.8722935730348307E+00  2.0180977673549757E-08  1.7287263009843346E-08
  2.9009093750428416E+00  1.9779194810843875E-08  1.6966902757988173E-08
  2.9298102677296924E+00  1.9385686121088556E-08  1.6652478084731402E-08
  2.9589990913685691E+00  1.9000270856271137E-08  1.6343877001454535E-08
  2.9884787145294496E+00  1.8622772323103584E-08  1.6040989533501863E-08
  3.0182520343610206E+00  1.8253017994724616E-08  1.5743707854036018E-08
  3.0483219768753913E+00  1.7890839403952894E-08  1.5451926240478836E-08
  3.0786914972356541E+00  1.7536072039509692E-08  1.5165541031866138E-08
  3.1093635800463120E+00  1.7188555245121200E-08  1.4884450587096668E-08
  3.1403412396465860E+00  1.6848132121414989E-08  1.4608555244056433E-08
  3.1716275204066577E+00  1.6514649430532636E-08  1.4337757279605536E-08
  3.2032254970268608E+00  1.6187957505526143E-08  1.4071960872499386E-08
  3.2351382748398492E+00  1.5867910222809775E-08  1.3811072125726090E-08
  3.2673689901157754E+00  1.5554365250918901E-08  1.3554999341159838E-08
  3.2999208103705122E+00  1.5247185902747059E-08  1.3303654649234072E-08
  3.3327969346769519E+00  1.4946241931935021E-08  1.3056954660412239E-08
  3.3660005939793876E+00  1.4651406268378839E-08  1.2814817742153116E-08
  3.3995350514110450E+00  1.4362554403079365E-08  1.2577163537228069E-08
  3.4334036026147747E+00  1.4079564337607134E-08  1.2343912948834247E-08
  3.4676095760669279E+00  1.3802316534575018E-08  1.2114988125752312E-08
  3.5021563334044687E+00  1.3530693869064410E-08  1.1890312447525610E-08
  3.5370472697553490E+00  1.3264581580986265E-08  1.1669810509666466E-08
  3.5722858140721665E+00  1.3003867228359890E-08  1.1453408108895088E-08
  3.6078754294691433E+00  1.2748440641493960E-08  1.1241032228421190E-08
  3.6438196135624743E+00  1.2498193867480464E-08  1.1032611013011884E-08
  3.6801218988140625E+00  1.2253021020917650E-08  1.0828073654047055E-08
  3.7167858528786688E+00  1.2012817428556786E-08  1.0627349657812244E-08
  3.7538150789545295E+00  1.1777477739137437E-08  1.0430367258667741E-08
  3.7912132161374759E+00  1.1546897934860663E-08  1.0237055179437498E-08
  3.8289839397785563E+00  1.1320976373908348E-08  1.0047343537134622E-08
  3.8671309618452399E+00  1.1099613741893678E-08  9.8611638232104984E-09
  3.9056580312862255E+00  1.0882712994329566E-08  9.6784488755739519E-09
  3.9445689343998658E+00  1.0670179300634846E-08  9.4991328511978416E-09
  3.9838674952062649E+00  1.0461919989633854E-08  9.3231511993010030E-09
  4.0235575758231006E+00  1.0257844496506131E-08  9.1504406350923871E-09
  4.0636430768451763E+00  1.0057864311107070E-08  8.9809391140291204E-09
  4.1041279377277515E+00  9.8618929286359190E-09  8.8145858075641169E-09
  4.1450161371736991E+00  9.6698458549585106E-09  8.6513211310000135E-09
  4.1863116935245248E+00  9.4816407504136141E-09  8.4910868933318747E-09
  4.2280186651552665E+00  9.2971985084824270E-09  8.3338272520776865E-09
  4.2701411508733331E+00  9.1164428181980422E-09  8.1794883383047458E-09
  4.3126832903213357E+00  8.9392989836288789E-09  8.0280172506317928E-09
  4.3556492643839047E+00  8.7656938320873854E-09  7.8793619901623941E-09
  4.3990432955985677E+00  8.5955556829329349E-09  7.7334714468585693E-09
  4.4428696485707357E+00  8.4288143170201503E-09  7.5902953860682803E-09
  4.4871326303928116E+00  8.2654009467786587E-09  7.4497844352066710E-09
  4.5318365910674654E+00  8.1052481869112732E-09  7.3118900705907614E-09
  4.5769859239351440E+00  7.9482900256988167E-09  7.1765646044291226E-09
  4.6225850661058381E+00  7.7944617971353695E-09  7.0437611721916015E-09
  4.6686384988951302E+00  7.6437001261380777E-09  6.9134336933920500E-09
  4.7151507482646124E+00  7.4959428926000370E-09  6.7855368494783261E-09
  4.7621263852666820E+00  7.3511292037762273E-09  6.6600260788275543E-09
  4.8095700264937662E+00  7.2091991501593043E-09  6.5368573697695861E-09
  4.8574863345320125E+00  7.0700940165147130E-09  6.4159874537459481E-09
  4.9058800184195261E+00  6.9337563065253808E-09  6.2973738365728545E-09
  4.9547558341091538E+00  6.8001297169488725E-09  6.1809747854483928E-09
  5.0041185849358749E+00  6.6691591123383562E-09  6.0667493161514932E-09
  5.0539731220888546E+00  6.5407905003145022E-09  5.9546571804305455E-09
  5.1043243450882159E+00  6.4149710073757302E-09  5.8446588535795728E-09
  5.1551772022665263E+00  6.2916488552348100E-09  5.7367155222000758E-09
  5.2065366912551116E+00  6.1707733372122179E-09  5.6307890717048535E-09
  5.2584078594752102E+00  6.0522948006280880E-09  5.5268420793716067E-09
  5.3107958046340107E+00  5.9361646270782261E-09  5.4248378056694142E-09
  5.3637056752256189E+00  5.8223349360964000E-09  5.3247399271512577E-09
  5.4171426710370616E+00  5.7107584221706438E-09  5.2265124003126605E-09
  5.4711120436592902E+00  5.6013887045555697E-09  5.1301197877229659E-09
  5.5256190970032781E+00  5.4941804016642649E-09  5.0355273317164897E-09
  5.5806691878212780E+00  5.3890891087891801E-09  4.9427009415767419E-09
  5.6362677262332745E+00  5.2860713759651925E-09  4.8516071806224123E-09
  5.6924201762586470E+00  5.1850846863634242E-09  4.7622132535440479E-09
  5.7491320563531714E+00  5.0860874352021762E-09  4.6744869939865069E-09
  5.8064089399513481E+00  4.9890389091620022E-09  4.5883968523725230E-09
  5.8642564560141466E+00  4.8938992664798623E-09  4.5039118841435029E-09
  5.9226802895821722E+00  4.8006295221426080E-09  4.4210017426965561E-09
  5.9816861823344079E+00  4.7091915429662616E-09  4.3396366816204053E-09
  6.0412799331524640E+00  4.6195480741388864E-09  4.2597875870321331E-09
  6.1014673986904686E+00  4.5316625636753978E-09  4.1814258220351432E-09
  6.1622544939506430E+00  4.4454991413411442E-09  4.1045232107332098E-09
  6.2236471928646182E+00  4.3610227018738304E-09  4.0290521181958634E-09
  6.2856515288805079E+00  4.2781988913517357E-09  3.9549854431383482E-09
  6.3482735955558676E+00  4.1969940902008488E-09  3.8822966074340424E-09
  6.4115195471565478E+00  4.1173753966105674E-09  3.8109595458358741E-09
  6.4753955992615166E+00  4.0393106103473822E-09  3.7409486959025083E-09
  6.5399080293736738E+00  3.9627682169563880E-09  3.6722389881251533E-09
  6.6050631775368265E+00  3.8877173723279157E-09  3.6048058362389443E-09
  6.6708674469587361E+00  3.8141278845391553E-09  3.5386251247465336E-09
  6.7373273046404032E+00  3.7419701816435322E-09  3.4736731826156305E-09
  6.8044492820116256E+00  3.6712152665500430E-09  3.4099267447372762E-09
  6.8722399755728940E+00  3.6018347047270386E-09  3.3473629447632672E-09
  6.9407060475436477E+00  3.5338006750835930E-09  3.2859593676235043E-09
  7.0098542265170307E+00  3.4670859516956758E-09  3.2256940368397685E-09
  7.0796913081211512E+00  3.4016638885659858E-09  3.1665454040922715E-09
  7.1502241556869359E+00  3.3375084065276647E-09  3.1084923406233182E-09
  7.2214597009226003E+00  3.2745939804625816E-09  3.0515141288185734E-09
  7.2934049445949194E+00  3.2128956268260932E-09  2.9955904539621353E-09
  7.3660669572172104E+00  3.1523888914705095E-09  2.9407013961618241E-09
  7.4394528797441941E+00  3.0930498377597458E-09  2.8868274224411168E-09
  7.5135699242737859E+00  3.0348550354476523E-09  2.8339493794516974E-09
  7.5884253747558885E+00  2.9777815565225761E-09  2.7820484928321709E-09
  7.6640265877082081E+00  2.9218069600364588E-09  2.7311063561747372E-09
  7.7403809929392384E+00  2.8669088679829549E-09  2.6811045365469905E-09
  7.8174960942784404E+00  2.8130645082073849E-09  2.6320241563233113E-09
  7.8953794703136841E+00  2.7602514605222071E-09  2.5838465869747365E-09
  7.9740387751360293E+00  2.7084478526162025E-09  2.5365536315985982E-09
  8.0534817390919713E+00  2.6576323455795588E-09  2.4901275142241097E-09
  8.1337161695431366E+00  2.6077841193736981E-09  2.4445508689734463E-09
  8.2147499516335554E+00  2.5588828587330199E-09  2.3998067295253016E-09
  8.2965910490645811E+00  2.5109087394845740E-09  2.3558785188716499E-09
  8.3792475048775668E+00  2.4638424152720202E-09  2.3127500393588102E-09
  8.4627274422442618E+00  2.4176650047214974E-09  2.2704054630539515E-09
  8.5470390652651442E+00  2.3723580815960164E-09  2.2288293248957635E-09
  8.6321906597757057E+00  2.3279036590113951E-09  2.1880065099801623E-09
  8.7181905941607454E+00  2.2842842525349947E-09  2.1479223149122252E-09
  8.8050473201767439E+00  2.2414832340881757E-09  2.1085627800989175E-09
  8.8927693737825386E+00  2.1994845685192841E-09  2.0699144454094476E-09
  8.9813653759781626E+00  2.1582725664564520E-09  2.0319641227890734E-09
  9.0708440336520901E+00  2.1178318706857325E-09  1.9946988852589072E-09
  9.1612141404369183E+00  2.0781474484663372E-09  1.9581060613305624E-09
  9.2524845775735880E+00  2.0392045840386228E-09  1.9221732295488862E-09
  9.3446643147841826E+00  2.0009888713196739E-09  1.8868882131596744E-09
  9.4377624111534359E+00  1.9634862067813605E-09  1.8522390748992712E-09
  9.5317880160190533E+00  1.9266827825017422E-09  1.8182141118990530E-09
  9.6267503698708392E+00  1.8905650761709499E-09  1.7848018476152195E-09
  9.7226588052588330E+00  1.8551198373558078E-09  1.7519910201039831E-09
  9.8195227477104954E+00  1.8203342496843220E-09  1.7197707382929090E-09
  9.9173517166569933E+00  1.7861967723762322E-09  1.6881312772598451E-09
  1.0016155326368734E+01  1.7526968768064415E-09  1.6570638252342839E-09
  1.0115943286900222E+01  1.7198242065706394E-09  1.6265596983987243E-09
  1.0216725405044349E+01  1.6875685117547511E-09  1.5966102805995235E-09
  1.0318511585296138E+01  1.6559196501553705E-09  1.5672070252781888E-09
  1.0421311830826127E+01  1.6248675883943215E-09  1.5383414572922695E-09
  1.0525136244463473E+01  1.5944024029303061E-09  1.5100051746284207E-09
  1.0629995029688795E+01  1.5645142809706493E-09  1.4821898500102624E-09
  1.0735898491636910E+01  1.5351935212861326E-09  1.4548872324036812E-09
  1.0842857038109642E+01  1.5064305357580620E-09  1.4280891492111085E-09
  1.0950881180598637E+01  1.4782158521772151E-09  1.4017875096078889E-09
  1.1059981535318354E+01  1.4505400972408093E-09  1.3759742888187423E-09
  1.1170168824249449E+01  1.4233941390002652E-09  1.3506416628677896E-09
  1.1281453876192478E+01  1.3967693738294711E-09  1.3257822798044853E-09
  1.1393847627832052E+01  1.3706573650476206E-09  1.3013889208090033E-09
  1.1507361124811744E+01  1.3450497446533274E-09  1.2774544087373605E-09
  1.1622005522819570E+01  1.3199382156469966E-09  1.2539716108336627E-09
  1.1737792088684277E+01  1.2953145543225545E-09  1.2309334414091068E-09
  1.1854732201482747E+01  1.2711706124150802E-09  1.2083328643817199E-09
  1.1972837353658129E+01  1.2474983191081806E-09  1.1861628956799933E-09
  1.2092119152149346E+01  1.2242896829048333E-09  1.1644166055134478E-09
  1.2212589319531855E+01  1.2015367932965626E-09  1.1430871204488162E-09
  1.2334259695169543E+01  1.1792318279740355E-09  1.1221676308626212E-09
  1.2457142236378388E+01  1.1573670603265323E-09  1.1016513985792384E-09
  1.2581249019601533E+01  1.1359348600083828E-09  1.0815317580112354E-09
  1.2706592241596070E+01  1.1149276059762094E-09  1.0618020345551657E-09
  1.2833184220631782E+01  1.0943377141550146E-09  1.0424555707068923E-09
  1.2961037397701682E+01  1.0741576962254746E-09  1.0234857818710165E-09
  1.3090164337744644E+01  1.0543801613449652E-09  1.0048861584657689E-09
  1.3220577730880303E+01  1.0349978165436496E-09  9.8665026677533633E-10
  1.3352290393656167E+01  1.0160034670372820E-09  9.6877174971465008E-10
  1.3485315270307135E+01  9.9739001645993611E-10  9.5124432750960172E-10
  1.3619665434027683E+01  9.7915046701979409E-10  9.3406179829563088E-10
  1.3755354088256620E+01  9.6127791958610224E-10  9.1721803864203353E-10
  1.3892394567974621E+01  9.4376556913686645E-10  9.0070699959221077E-10
  1.4030800341014835E+01  9.2660667609958716E-10  8.8452267948338891E-10
  1.4170585009386398E+01  9.0979449940180087E-10  8.6865906027798514E-10
  1.4311762310611142E+01  8.9332179174399026E-10  8.5310962698058001E-10
  1.4454346119073826E+01  8.7718098539265582E-10  8.3786754693020646E-10
  1.4598350447385462E+01  8.6136466711673865E-10  8.2292612081997830E-10
  1.4743789447760522E+01  8.4586560472769231E-10  8.0827880824439600E-10
  1.4890677413407838E+01  8.3067674229832229E-10  7.9391922364368596E-10
  1.5039028779935116E+01  8.1579119551802939E-10  7.7984113235957544E-10
  1.5188858126767753E+01  8.0120224718021106E-10  7.6603844679914159E-10
  1.5340180178581612E+01  7.8690334279783857E-10  7.5250522270361142E-10
