 #p(MeV) \t \delta f_\\nu \t \delta f_\\nubar
  9.6103298426399619E-01  3.0765047786143157E-07  1.7779999015896385E-07
  9.7060746852251512E-01  3.0066186011874615E-07  1.7471087514619678E-07
  9.8027734050478255E-01  2.9384413962664167E-07  1.7167252556310062E-07
  9.9004355053016879E-01  2.8719270531407567E-07  1.6868417506448846E-07
  9.9990705838578986E-01  2.8070308688790487E-07  1.6574506797960396E-07
  1.0098688334208359E+00  2.7437095233032157E-07  1.6285446139398373E-07
  1.0199298546418314E+00  2.6819210083057374E-07  1.6001162267076867E-07
  1.0300911108088504E+00  2.6216246784857393E-07  1.5721583379888489E-07
  1.0403536005326897E+00  2.5627811875287890E-07  1.5446639045161551E-07
  1.0507183323730038E+00  2.5053523486817022E-07  1.5176259709157062E-07
  1.0611863249374289E+00  2.4493010917740823E-07  1.4910376669945565E-07
  1.0717586069816818E+00  2.3945914263298112E-07  1.4648922071842265E-07
  1.0824362175106654E+00  2.3411884060644860E-07  1.4391828899749998E-07
  1.0932202058805796E+00  2.2890580947097948E-07  1.4139030973414435E-07
  1.1041116319020432E+00  2.2381675331086472E-07  1.3890462941595397E-07
  1.1151115659442550E+00  2.1884847075214457E-07  1.3646060276099524E-07
  1.1262210890401791E+00  2.1399785171056553E-07  1.3405759246700428E-07
  1.1374412929927884E+00  2.0926187308705932E-07  1.3169496783832582E-07
  1.1487732804823638E+00  2.0463760216037139E-07  1.2937210969872013E-07
  1.1602181651748580E+00  2.0012219790338279E-07  1.2708841382784582E-07
  1.1717770718313469E+00  1.9571289555680517E-07  1.2484328210946934E-07
  1.1834511364185627E+00  1.9140700663777169E-07  1.2263612327156507E-07
  1.1952415062205348E+00  1.8720191753600070E-07  1.2046635336057888E-07
  1.2071493399513420E+00  1.8309508717662607E-07  1.1833339569988709E-07
  1.2191758078689823E+00  1.7908404476586606E-07  1.1623668084700833E-07
  1.2313220918903871E+00  1.7516638761618851E-07  1.1417564654961808E-07
  1.2435893857075708E+00  1.7133977904779864E-07  1.1214973770042340E-07
  1.2559788949049440E+00  1.6760194636353353E-07  1.1015840629107901E-07
  1.2684918370777967E+00  1.6395067893445197E-07  1.0820111140402624E-07
  1.2811294419519541E+00  1.6038382702989174E-07  1.0627731985192659E-07
  1.2938929515046342E+00  1.5689929687305499E-07  1.0438650359379404E-07
  1.3067836200865011E+00  1.5349503839125899E-07  1.0252813157424935E-07
  1.3198027145449396E+00  1.5016905161237462E-07  1.0070167585348921E-07
  1.3329515143485582E+00  1.4691939179980168E-07  9.8906616553277908E-08
  1.3462313117129248E+00  1.4374416735766444E-07  9.7142441583957360E-08
  1.3596434117275693E+00  1.4064153820813610E-07  9.5408646540229730E-08
  1.3731891324842342E+00  1.3760971423031733E-07  9.3704734601407784E-08
  1.3868698052064177E+00  1.3464695375205230E-07  9.2030216432631660E-08
  1.4006867743802005E+00  1.3175156209267594E-07  9.0384610087049735E-08
  1.4146413978863748E+00  1.2892189015476416E-07  8.8767440908954561E-08
  1.4287350471338922E+00  1.2615633305654808E-07  8.7178241431541253E-08
  1.4429691071946447E+00  1.2345332859055644E-07  8.5616551064985497E-08
  1.4573449769395777E+00  1.2081135580312294E-07  8.4081915841164565E-08
  1.4718640691761733E+00  1.1822893559404290E-07  8.2573889871439702E-08
  1.4865278107872886E+00  1.1570462910023558E-07  8.1092034940599145E-08
  1.5013376428713909E+00  1.1323703522964927E-07  7.9635919394611696E-08
  1.5162950208841788E+00  1.1082478969722805E-07  7.8205118118836839E-08
  1.5314014147816202E+00  1.0846656396831707E-07  7.6799212460316362E-08
  1.5466583091644175E+00  1.0616106422385671E-07  7.5417790143354860E-08
  1.5620672034239036E+00  1.0390703035893559E-07  7.4060445185879953E-08
  1.5776296118893991E+00  1.0170323501350009E-07  7.2726777816580933E-08
  1.5933470639770362E+00  9.9548482634070243E-08  7.1416394392826322E-08
  1.6092211043400610E+00  9.7441608566692015E-08  7.0128907320664451E-08
  1.6252532930206403E+00  9.5381478226930925E-08  6.8863935022595030E-08
  1.6414452056031714E+00  9.3366986357645971E-08  6.7621101957168065E-08
  1.6577984333691309E+00  9.1397057323280159E-08  6.6400039474531741E-08
  1.6743145834534552E+00  8.9470643157113861E-08  6.5200385036201627E-08
  1.6909952790024849E+00  8.7586719652017510E-08  6.4021779812861555E-08
  1.7078421593334845E+00  8.5744288350960812E-08  6.2863870296628494E-08
  1.7248568800957449E+00  8.3942376249798882E-08  6.1726308500945885E-08
  1.7420411134332945E+00  8.2180035082511180E-08  6.0608751885439532E-08
  1.7593965481492355E+00  8.0456340628768311E-08  5.9510863281499894E-08
  1.7769248898717078E+00  7.8770392043048837E-08  5.8432310818593111E-08
  1.7946278612215174E+00  7.7121311204555515E-08  5.7372767851299666E-08
  1.8125072019814221E+00  7.5508242087007881E-08  5.6331912886879292E-08
  1.8305646692671194E+00  7.3930350136243979E-08  5.5309429502235292E-08
  1.8488020376999230E+00  7.2386821824410045E-08  5.4305006410365133E-08
  1.8672210995811667E+00  7.0876864733276809E-08  5.3318337974439745E-08
  1.8858236650683502E+00  6.9399711974576770E-08  5.2349127724087609E-08
  1.9046115623530282E+00  6.7954628705815074E-08  5.1397093010516827E-08
  1.9235866378404809E+00  6.6540900342791899E-08  5.0461957082609464E-08
  1.9427507563311757E+00  6.5157828652287743E-08  4.9543446718052963E-08
  1.9621058012040247E+00  6.3804731356034164E-08  4.8641292202829853E-08
  1.9816536746014859E+00  6.2480941751670643E-08  4.7755227314366242E-08
  2.0013962976164885E+00  6.1185808343351139E-08  4.6884989303806524E-08
  2.0213356104812417E+00  5.9918694481720896E-08  4.6030318877448092E-08
  2.0414735727579041E+00  5.8678978013004449E-08  4.5190960177376102E-08
  2.0618121635311661E+00  5.7466050937324075E-08  4.4366660761698137E-08
  2.0823533816027506E+00  5.6279318975881031E-08  4.3557171488688733E-08
  2.1030992456878406E+00  5.5118200393476750E-08  4.2762245712232238E-08
  2.1240517946134756E+00  5.3982120927141523E-08  4.1981635488323035E-08
  2.1452130875189219E+00  5.2870501813556386E-08  4.1215083216808286E-08
  2.1665852040580309E+00  5.1782770522984433E-08  4.0462329969847183E-08
  2.1881702446036275E+00  5.0718369216123255E-08  3.9723121708109274E-08
  2.2099703304539178E+00  4.9676754518715383E-08  3.8997209318452524E-08
  2.2319876040409734E+00  4.8657397104914164E-08  3.8284348512604864E-08
  2.2542242291412724E+00  4.7659781293885894E-08  3.7584299728037881E-08
  2.2766823910883498E+00  4.6683404659186376E-08  3.6896828030982878E-08
  2.2993642969875698E+00  4.5727777650467989E-08  3.6221703021541067E-08
  2.3222721759330240E+00  4.4792423227594478E-08  3.5558698741331796E-08
  2.3454082792266009E+00  4.3876876557531939E-08  3.4907593632857004E-08
  2.3687748805992408E+00  4.2980685176485464E-08  3.4268170927686889E-08
  2.3923742764343805E+00  4.2103411166143625E-08  3.3640220695794824E-08
  2.4162087859936427E+00  4.1244640296218229E-08  3.3023546983244924E-08
  2.4402807516447567E+00  4.0403978707324989E-08  3.2417965057464778E-08
  2.4645925390917642E+00  3.9581041732100289E-08  3.1823293182962416E-08
  2.4891465376075064E+00  3.8775452837437116E-08  3.1239351971419744E-08
  2.5139451602684351E+00  3.7986843453404568E-08  3.0665964371718993E-08
  2.5389908441917646E+00  3.7214852805824872E-08  3.0102955659281190E-08
  2.5642860507749758E+00  3.6459127752422279E-08  2.9550153424745511E-08
  2.5898332659377172E+00  3.5719322622460750E-08  2.9007387562017267E-08
  2.6156350003661140E+00  3.4995099059723775E-08  2.8474490255646704E-08
  2.6416937897595028E+00  3.4286125853257286E-08  2.7951295952466544E-08
  2.6680121950796387E+00  3.3592078577676019E-08  2.7437641147028557E-08
  2.6945928028023687E+00  3.2912638441297358E-08  2.6933363467291421E-08
  2.7214382251718288E+00  3.2247487152532473E-08  2.6438297621570465E-08
  2.7485511004571603E+00  3.1596304457224803E-08  2.5952273809989061E-08
  2.7759340932117893E+00  3.0958776252174249E-08  2.5475124180378510E-08
  2.8035898945352971E+00  3.0334596137219566E-08  2.5006684100848281E-08
  2.8315212223378787E+00  2.9723465209308743E-08  2.4546792096434593E-08
  2.8597308216074580E+00  2.9125091861464821E-08  2.4095289786195310E-08
  2.8882214646794555E+00  2.8539191587645558E-08  2.3652021821601682E-08
  2.9169959515092367E+00  2.7965486793310000E-08  2.3216835826200542E-08
  2.9460571099472865E+00  2.7403706611515589E-08  2.2789582336525601E-08
  2.9754077960171190E+00  2.6853586726518903E-08  2.2370114746321793E-08
  3.0050508941959579E+00  2.6314869263061374E-08  2.1958289310556924E-08
  3.0349893176982090E+00  2.5787302954503106E-08  2.1553965402112965E-08
  3.0652260087617607E+00  2.5270645297983548E-08  2.1157007425151328E-08
  3.0957639389371421E+00  2.4764666477615346E-08  2.0767287968886418E-08
  3.1266061093795483E+00  2.4269144285665637E-08  2.0384683717317956E-08
  3.1577555511437856E+00  2.3783861149655245E-08  2.0009073170787582E-08
  3.1892153254821567E+00  2.3308603993715158E-08  1.9640336595709411E-08
  3.2209885241453033E+00  2.2843164146875415E-08  1.9278356008731626E-08
  3.2530782696860521E+00  2.2387337253215151E-08  1.8923015160719861E-08
  3.2854877157662936E+00  2.1940923183834548E-08  1.8574199520575781E-08
  3.3182200474669097E+00  2.1503725950610995E-08  1.8231796258903950E-08
  3.3512784816007861E+00  2.1075553621704587E-08  1.7895694231544621E-08
  3.3846662670289542E+00  2.0656218228203798E-08  1.7565783952723158E-08
  3.4183866849798816E+00  2.0245535577809228E-08  1.7241957478024327E-08
  3.4524430493719289E+00  1.9843324297021627E-08  1.6924107616520154E-08
  3.4868387071390323E+00  1.9449401708374467E-08  1.6612124566949923E-08
  3.5215770385596392E+00  1.9063585202215628E-08  1.6305897180387281E-08
  3.5566614575888926E+00  1.8685696294523942E-08  1.6005316301822133E-08
  3.5920954121941482E+00  1.8315560787420670E-08  1.5710274944167619E-08
  3.6278823846938368E+00  1.7953008656486885E-08  1.5420668243025164E-08
  3.6640258920996849E+00  1.7597873941315184E-08  1.5136393412435814E-08
  3.7005294864623495E+00  1.7249994639194591E-08  1.4857349701595915E-08
  3.7373967552205092E+00  1.6909212601830760E-08  1.4583438352514274E-08
  3.7746313215534268E+00  1.6575373434969806E-08  1.4314562558553775E-08
  3.8122368447370079E+00  1.6248326401851501E-08  1.4050627424823667E-08
  3.8502170205034325E+00  1.5927924382750251E-08  1.3791539981030832E-08
  3.8885755814043619E+00  1.5614023976427643E-08  1.3537209318377946E-08
  3.9273162971777453E+00  1.5306487314820423E-08  1.3287548174699387E-08
  3.9664429751183037E+00  1.5005183184262432E-08  1.3042473867740978E-08
  4.0059594604517033E+00  1.4709983696970109E-08  1.2801905549467547E-08
  4.0458696367124425E+00  1.4420763600887391E-08  1.2565763668859197E-08
  4.0861774261255075E+00  1.4137400225105750E-08  1.2333969954987351E-08
  4.1268867899918424E+00  1.3859773426532388E-08  1.2106447400279305E-08
  4.1680017290776510E+00  1.3587765537673213E-08  1.1883120243887157E-08
  4.2095262840075698E+00  1.3321261315506407E-08  1.1663913955164351E-08
  4.2514645356617695E+00  1.3060147891424561E-08  1.1448755217254293E-08
  4.2938206055770181E+00  1.2804314722458865E-08  1.1237571911019310E-08
  4.3365986563517129E+00  1.2553653516019305E-08  1.1030293072346135E-08
  4.3798028920549754E+00  1.2308058173909905E-08  1.0826848866524824E-08
  4.4234375586398160E+00  1.2067424667003818E-08  1.0627170513698785E-08
  4.4675069443604052E+00  1.1831650232411187E-08  1.0431189623759675E-08
  4.5120153801935015E+00  1.1600633913468140E-08  1.0238838676293501E-08
  4.5569672402640915E+00  1.1374276910007415E-08  1.0050051336049073E-08
  4.6023669422752658E+00  1.1152482535126444E-08  9.8647624373815671E-09
  4.6482189479423655E+00  1.0935156168349090E-08  9.6829079650567925E-09
  4.6945277634314664E+00  1.0722205209875335E-08  9.5044250353274266E-09
  4.7412979398022372E+00  1.0513539035891659E-08  9.3292518772786171E-09
  4.7885340734551844E+00  1.0309068954916447E-08  9.1573278144406205E-09
  4.8362408065833806E+00  1.0108708164697110E-08  8.9885932462240765E-09
  4.8844228276286827E+00  9.9123717155876503E-09  8.8229896349852705E-09
  4.9330848717424951E+00  9.7199764722794368E-09  8.6604594914438989E-09
  4.9822317212511074E+00  9.5314407950357924E-09  8.5009460979905058E-09
  5.0318682061257061E+00  9.3466842721233197E-09  8.3443932918155026E-09
  5.0819992044570377E+00  9.1656280571258737E-09  8.1907457891788385E-09
  5.1326296429348011E+00  8.9881950226407226E-09  8.0399493358544331E-09
  5.1837644973318326E+00  8.8143097263094900E-09  7.8919506928863026E-09
  5.2354087929931143E+00  8.6438983719688113E-09  7.7466976176932967E-09
  5.2875676053296266E+00  8.4768887717522119E-09  7.6041388455195268E-09
  5.3402460603171553E+00  8.3132103091181878E-09  7.4642240712242412E-09
  5.3934493350000530E+00  8.1527939027804972E-09  7.3269039314052644E-09
  5.4471826580000204E+00  7.9955719717050052E-09  7.1921299870308429E-09
  5.5014513100299389E+00  7.8414784055827900E-09  7.0598547108577142E-09
  5.5562606244128645E+00  7.6904485455559784E-09  6.9300314842366986E-09
  5.6116159876061600E+00  7.5424191965509814E-09  6.8026146239183825E-09
  5.6675228397308421E+00  7.3973284286584313E-09  6.6775592127252328E-09
  5.7239866751062261E+00  7.2551155572044701E-09  6.5548210905102613E-09
  5.7810130427899002E+00  7.1157212146753209E-09  6.4343569312699595E-09
  5.8386075471230425E+00  6.9790873178048465E-09  6.3161242252216923E-09
  5.8967758482812060E+00  6.8451570382413479E-09  6.2000812633894745E-09
  5.9555236628305881E+00  6.7138747739269664E-09  6.0861871224797953E-09
  6.0148567642898279E+00  6.5851861211705228E-09  5.9744016500416511E-09
  6.0747809836973863E+00  6.4590378473960849E-09  5.8646854499055473E-09
  6.1353022101846353E+00  6.3353778645367975E-09  5.7569998678842493E-09
  6.1964263915545992E+00  6.2141551999767423E-09  5.6513069747618351E-09
  6.2581595348664774E+00  6.0953199537062799E-09  5.5475695355316006E-09
  6.3205077070260050E+00  5.9788232428262671E-09  5.4457509664685973E-09
  6.3834770353816959E+00  5.8646171682859734E-09  5.3458153141037076E-09
  6.4470737083269913E+00  5.7526547793135995E-09  5.2477272361185850E-09
  6.5113039759084517E+00  5.6428900951783586E-09  5.1514520278704464E-09
  6.5761741504399831E+00  5.5352781285865900E-09  5.0569556499586585E-09
  6.6416906071231958E+00  5.4297748634084975E-09  4.9642047156563565E-09
  6.7078597846739036E+00  5.3263372324150848E-09  4.8731664781238564E-09
  6.7746881859549442E+00  5.2249230955590079E-09  4.7838088178772287E-09
  6.8421823786152256E+00  5.1254912187853195E-09  4.6961002305070224E-09
  6.9103489957351778E+00  5.0280012533583715E-09  4.6100098146420814E-09
  6.9791947364786200E+00  4.9324137161713399E-09  4.5255072606109964E-09
  7.0487263667511524E+00  4.8386899772350796E-09  4.4425628458253114E-09
  7.1189507198650590E+00  4.7467922363590028E-09  4.3611474198449504E-09
  7.1898746972108700E+00  4.6566830787417484E-09  4.2812319949286797E-09
  7.2615052689356139E+00  4.5683248771286952E-09  4.2027872037025213E-09
  7.3338494746278098E+00  4.4816805989908313E-09  4.1257840506012576E-09
  7.4069144240092770E+00  4.3967140898409642E-09  4.0501941766560414E-09
  7.4807072976338818E+00  4.3133900510114381E-09  3.9759898448702150E-09
  7.5552353475932046E+00  4.2316740172436583E-09  3.9031439251871788E-09
  7.6305058982292344E+00  4.1515323349177946E-09  3.8316298798531413E-09
  7.7065263468541882E+00  4.0729321409027563E-09  3.7614217491633144E-09
  7.7833041644775092E+00  3.9958413420069857E-09  3.6924941375805564E-09
  7.8608468965400595E+00  3.9202285950621112E-09  3.6248222002654821E-09
  7.9391621636556691E+00  3.8460632901806519E-09  3.5583816324747733E-09
  8.0182576623600781E+00  3.7733155282554902E-09  3.4931486531765763E-09
  8.0981411658673110E+00  3.7019561783879208E-09  3.4291000636064987E-09
  8.1788205248335775E+00  3.6319572615911085E-09  3.3662136092667514E-09
  8.2603036681288504E+00  3.5632916720107642E-09  3.3044677244297640E-09
  8.3425986036160609E+00  3.4959328871740522E-09  3.2438412674164286E-09
  8.4257134189380736E+00  3.4298549525134078E-09  3.1843135097881064E-09
  8.5096562823125215E+00  3.3650324681621481E-09  3.1258641277329281E-09
  8.5944354433345609E+00  3.3014405760818483E-09  3.0684731936426964E-09
  8.6800592337875848E+00  3.2390549475125486E-09  3.0121211678759857E-09
  8.7665360684620506E+00  3.1778517707370171E-09  2.9567888907030269E-09
  8.8538744459824752E+00  3.1178077391464090E-09  2.9024575744240763E-09
  8.9420829496426126E+00  3.0589000363850309E-09  2.8491087925705139E-09
  9.0311702482490066E+00  3.0011063178751119E-09  2.7967244655074734E-09
  9.1211450969729366E+00  2.9444048683872636E-09  2.7452870140947825E-09
  9.2120163382108391E+00  2.8887755379085326E-09  2.6947802430214235E-09
  9.3037929024532904E+00  2.8341998351527647E-09  2.6451894163181380E-09
  9.3964838091626746E+00  2.7806597319477051E-09  2.5965001488931996E-09
  9.4900981676595979E+00  2.7281374324399210E-09  2.5486981969033124E-09
  9.5846451780180857E+00  2.6766153723035558E-09  2.5017694590178519E-09
  9.6801341319697531E+00  2.6260762183394083E-09  2.4556999779939038E-09
  9.7765744138169719E+00  2.5765028679738894E-09  2.4104759421179404E-09
  9.8739755013551100E+00  2.5278784486614060E-09  2.3660836865178685E-09
  9.9723469668039506E+00  2.4801863171936819E-09  2.3225096943490342E-09
  1.0071698477748470E+01  2.4334100597456168E-09  2.2797405986467706E-09
  1.0172039798088903E+01  2.3875334931779104E-09  2.2377631852995489E-09
  1.0273380789000276E+01  2.3425406465429834E-09  2.1965643769417092E-09
  1.0375731409901576E+01  2.2984159144476585E-09  2.1561313787818347E-09
  1.0479101719434510E+01  2.2551444635026845E-09  2.1164520614378249E-09
  1.0583501876451992E+01  2.2127118081833582E-09  2.0775145651583916E-09
  1.0688942141016579E+01  2.1711036233494831E-09  2.0393071267660314E-09
  1.0795432875408768E+01  2.1303057445440570E-09  2.0018180813172216E-09
  1.0902984545145307E+01  2.0903041696494899E-09  1.9650358649962489E-09
  1.1011607720007845E+01  2.0510850603781271E-09  1.9289490178317717E-09
  1.1121313075081533E+01  2.0126347436021221E-09  1.8935461862405817E-09
  1.1232111391804201E+01  1.9749397125273399E-09  1.8588161254027977E-09
  1.1344013559025992E+01  1.9379866276472418E-09  1.8247477014083964E-09
  1.1457030574079328E+01  1.9017623232209022E-09  1.7913298987471072E-09
  1.1571173543859805E+01  1.8662538140235501E-09  1.7585518279518772E-09
  1.1686453685917707E+01  1.8314482945484844E-09  1.7264027261540197E-09
  1.1802882329560376E+01  1.7973330293069003E-09  1.6948718549138498E-09
  1.1920470916965696E+01  1.7638953779621032E-09  1.6639485245229798E-09
  1.2039231004306544E+01  1.7311228803372454E-09  1.6336221749579462E-09
  1.2159174262886456E+01  1.6990032581264949E-09  1.6038823786284805E-09
  1.2280312480286712E+01  1.6675244142808280E-09  1.5747188409056820E-09
  1.2402657561524743E+01  1.6366744323075140E-09  1.5461214005442223E-09
  1.2526221530224067E+01  1.6064415754871790E-09  1.5180800300025263E-09
  1.2651016529796008E+01  1.5768142860122017E-09  1.4905848356647186E-09
  1.2777054824633066E+01  1.5477811840552073E-09  1.4636260579726141E-09
  1.2904348801314173E+01  1.5193310621978145E-09  1.4371940670588078E-09
  1.3032910969822090E+01  1.4914528557525183E-09  1.4112793351452196E-09
  1.3162753964772792E+01  1.4641355747596644E-09  1.3858723724068575E-09
  1.3293890546657098E+01  1.4373677309931165E-09  1.3609631829689714E-09
  1.3426333603094882E+01  1.4111373393738258E-09  1.3365412720794941E-09
  1.3560096150101439E+01  1.3854325998802661E-09  1.3125962909305726E-09
  1.3695191333366727E+01  1.3602419930916637E-09  1.2891181271490957E-09
  1.3831632429547367E+01  1.3355542730782921E-09  1.2660968990874279E-09
  1.3969432847571248E+01  1.3113584604170027E-09  1.2435229501979108E-09
  1.4108606129955445E+01  1.2876438353985256E-09  1.2213868435541557E-09
  1.4249165954137091E+01  1.2643999314209871E-09  1.1996793565150684E-09
