 #p(MeV) \t \delta f_\\nu \t \delta f_\\nubar
  1.3846927864480312E-02  9.9232432038011048E-02  2.1286563369640464E-06
  1.3984880666348863E-02  9.8985292067955075E-02  2.1097594247346138E-06
  1.4124207850732406E-02  9.8752182067279648E-02  2.0910110659511873E-06
  1.4264923110192991E-02  9.8541333671583811E-02  2.0724107554949853E-06
  1.4407040273707539E-02  9.8365137036804315E-02  2.0539580769004338E-06
  1.4550573308026962E-02  9.8147200463642184E-02  2.0356526783559028E-06
  1.4695536319048717E-02  9.7920264450103031E-02  2.0174942497466735E-06
  1.4841943553203094E-02  9.7643080665147125E-02  1.9994825157113212E-06
  1.4989809398853334E-02  9.7403310178875019E-02  1.9816172384327617E-06
  1.5139148387709611E-02  9.7160097500618839E-02  1.9638981794531281E-06
  1.5289975196257206E-02  9.6963287570587656E-02  1.9463250148961047E-06
  1.5442304647198814E-02  9.6749295581007075E-02  1.9288972457700820E-06
  1.5596151710911287E-02  9.6525593412345762E-02  1.9116141426434036E-06
  1.5751531506916890E-02  9.6288917698448634E-02  1.8944747363141688E-06
  1.5908459305369126E-02  9.6046853583401537E-02  1.8774778421860208E-06
  1.6066950528553520E-02  9.5794390830561321E-02  1.8606221005983654E-06
  1.6227020752403173E-02  9.5580816014630671E-02  1.8439060196444626E-06
  1.6388685708029566E-02  9.5347339217581178E-02  1.8273280123422121E-06
  1.6551961283268551E-02  9.5119266097016805E-02  1.8108864330000014E-06
  1.6716863524241718E-02  9.4905506563604192E-02  1.7945796033844218E-06
  1.6883408636933394E-02  9.4704216133499997E-02  1.7784058036412981E-06
  1.7051612988783250E-02  9.4471981311697234E-02  1.7623632676663743E-06
  1.7221493110294885E-02  9.4286129849307163E-02  1.7464502243731650E-06
  1.7393065696660368E-02  9.4069335982028671E-02  1.7306649727554490E-06
  1.7566347609400946E-02  9.3837433556856573E-02  1.7150059534499610E-06
  1.7741355878024202E-02  9.3604254922290644E-02  1.6994717889145262E-06
  1.7918107701697578E-02  9.3397709744252599E-02  1.6840612886428494E-06
  1.8096620450938673E-02  9.3171237961198194E-02  1.6687734307937111E-06
  1.8276911669322399E-02  9.2942050317111766E-02  1.6536073330389133E-06
  1.8458999075205020E-02  9.2731765533837870E-02  1.6385622224638245E-06
  1.8642900563465507E-02  9.2517708788600078E-02  1.6236374054639454E-06
  1.8828634207264147E-02  9.2298051447290017E-02  1.6088322373275837E-06
  1.9016218259818720E-02  9.2077488558088769E-02  1.5941461197456882E-06
  1.9205671156198374E-02  9.1852837836354367E-02  1.5795785218409794E-06
  1.9397011515135305E-02  9.1627592028626706E-02  1.5651289856874016E-06
  1.9590258140854615E-02  9.1394164229817790E-02  1.5507971007107685E-06
  1.9785430024922238E-02  9.1214593382940135E-02  1.5365824595901573E-06
  1.9982546348111412E-02  9.0988901552641568E-02  1.5224846176455431E-06
  2.0181626482287704E-02  9.0803530746658256E-02  1.5085030692420105E-06
  2.0382689992312759E-02  9.0600134604802277E-02  1.4946372412088893E-06
  2.0585756637967093E-02  9.0372779740934911E-02  1.4808864978581599E-06
  2.0790846375892024E-02  9.0141393653790203E-02  1.4672501514049512E-06
  2.0997979361550893E-02  8.9898010987214574E-02  1.4537274738117836E-06
  2.1207175951209932E-02  8.9678983031549378E-02  1.4403177094106409E-06
  2.1418456703938719E-02  8.9460248336366177E-02  1.4270200835281140E-06
  2.1631842383630747E-02  8.9245092803869747E-02  1.4138338117531314E-06
  2.1847353961043935E-02  8.9033404873091929E-02  1.4007581248551356E-06
  2.2065012615861589E-02  8.8847421756722209E-02  1.3877923088076681E-06
  2.2284839738773904E-02  8.8648297461026870E-02  1.3749357443457284E-06
  2.2506856933580090E-02  8.8462152854074674E-02  1.3621879305024366E-06
  2.2731086019311550E-02  8.8249412502303448E-02  1.3495484864556631E-06
  2.2957549032376200E-02  8.8034204971908961E-02  1.3370171366997693E-06
  2.3186268228724067E-02  8.7815267075911141E-02  1.3245936880528084E-06
  2.3417266086034588E-02  8.7600175343944403E-02  1.3122780055679740E-06
  2.3650565305925554E-02  8.7386549684476830E-02  1.3000699913515339E-06
  2.3886188816184234E-02  8.7168343531924500E-02  1.2879695685018576E-06
  2.4124159773020556E-02  8.6967822321539170E-02  1.2759766666070429E-06
  2.4364501563342838E-02  8.6763698829899816E-02  1.2640911921934796E-06
  2.4607237807056197E-02  8.6552532594471196E-02  1.2523129747173307E-06
  2.4852392359383794E-02  8.6342121978749298E-02  1.2406417006342899E-06
  2.5099989313211220E-02  8.6141695661040990E-02  1.2290768597315546E-06
  2.5350053001454331E-02  8.5953187465845515E-02  1.2176177217872303E-06
  2.5602607999450484E-02  8.5769989565234281E-02  1.2062633464301394E-06
  2.5857679127373849E-02  8.5576819724949238E-02  1.1950126163126270E-06
  2.6115291452674490E-02  8.5352662874076335E-02  1.1838642798869201E-06
  2.6375470292542048E-02  8.5115573172956094E-02  1.1728169931959449E-06
  2.6638241216393722E-02  8.4865366727306796E-02  1.1618693552932305E-06
  2.6903630048387153E-02  8.4647091064851507E-02  1.1510199360760781E-06
  2.7171662869958386E-02  8.4435604417688770E-02  1.1402673001916218E-06
  2.7442366022384979E-02  8.4248677807919517E-02  1.1296100420681150E-06
  2.7715766109374762E-02  8.4096092531953992E-02  1.1190468367302752E-06
  2.7991889999680390E-02  8.3915943419958547E-02  1.1085764909612332E-06
  2.8270764829739812E-02  8.3723077990925321E-02  1.0981979765616764E-06
  2.8552418006343252E-02  8.3517012872664192E-02  1.0879104365710196E-06
  2.8836877209326525E-02  8.3316976965651143E-02  1.0777131674747898E-06
  2.9124170394291441E-02  8.3098958676763715E-02  1.0676055873754336E-06
  2.9414325795353066E-02  8.2899051372861229E-02  1.0575872010853177E-06
  2.9707371927914502E-02  8.2677043501303990E-02  1.0476575693719452E-06
  3.0003337591469351E-02  8.2500470882263283E-02  1.0378162851938074E-06
  3.0302251872431889E-02  8.2294228052053026E-02  1.0280629562688193E-06
  3.0604144146995655E-02  8.2099595360842034E-02  1.0183971901522540E-06
  3.0909044084020464E-02  8.1896783202635146E-02  1.0088185700354125E-06
  3.1216981647948044E-02  8.1702112013066819E-02  9.9932661953857828E-07
  3.1527987101746965E-02  8.1506940092067937E-02  9.8992077593717644E-07
  3.1842091009886636E-02  8.1304123093649747E-02  9.8060038760911728E-07
  3.2159324241341193E-02  8.1097760163803476E-02  9.7136473661139930E-07
  3.2479717972623105E-02  8.0899430894741553E-02  9.6221307499676007E-07
  3.2803303690847087E-02  8.0697765289466747E-02  9.5314466036418196E-07
  3.3130113196824622E-02  8.0506683903613999E-02  9.4415878141254197E-07
  3.3460178608189124E-02  8.0307587515938236E-02  9.3525477113090948E-07
  3.3793532362552371E-02  8.0106180742779809E-02  9.2643200972359208E-07
  3.4130207220692446E-02  7.9916766085120161E-02  9.1768992134081153E-07
  3.4470236269773163E-02  7.9736133434349044E-02  9.0902796941587203E-07
  3.4813652926595960E-02  7.9556651260319425E-02  9.0044565952695457E-07
  3.5160490940883776E-02  7.9365576201002569E-02  8.9194255233939051E-07
  3.5510784398598040E-02  7.9173253159627713E-02  8.8351826804639314E-07
  3.5864567725288357E-02  7.8965164590199130E-02  8.7517246640543504E-07
  3.6221875689475790E-02  7.8757410796452640E-02  8.6690480363088281E-07
  3.6582743406069845E-02  7.8546694099921419E-02  8.5871488001347927E-07
  3.6947206339819308E-02  7.8361980278216614E-02  8.5060219691150918E-07
  3.7315300308797650E-02  7.8166104325476188E-02  8.4256613414037905E-07
  3.7687061487923161E-02  7.7995852581232386E-02  8.3460594791463443E-07
  3.8062526412513946E-02  7.7805172743222267E-02  8.2672078380563036E-07
  3.8441731981878641E-02  7.7617217883201944E-02  8.1890969755003210E-07
  3.8824715462942576E-02  7.7457107612165815E-02  8.1117167741486914E-07
  3.9211514493910388E-02  7.7279955719160673E-02  8.0350566087762090E-07
  3.9602167087964851E-02  7.7082713055631497E-02  7.9591054145292989E-07
  3.9996711637002705E-02  7.6885582141118680E-02  7.8838517960750872E-07
  4.0395186915407728E-02  7.6686663747423889E-02  7.8092843394192353E-07
  4.0797632083861238E-02  7.6484120157535043E-02  7.7353921334641279E-07
  4.1204086693190714E-02  7.6271208034798949E-02  7.6621653810756972E-07
  4.1614590688256750E-02  7.6091606864550104E-02  7.5895959094413576E-07
  4.2029184411878591E-02  7.5909629836693235E-02  7.5176774325769520E-07
  4.2447908608798941E-02  7.5727629016677664E-02  7.4464055543255938E-07
  4.2870804429688200E-02  7.5541048347134210E-02  7.3757775751861417E-07
  4.3297913435188615E-02  7.5349037753088224E-02  7.3057921919340202E-07
  4.3729277599998652E-02  7.5154577231926714E-02  7.2364491680312216E-07
  4.4164939316998116E-02  7.4951014446185404E-02  7.1677490429988469E-07
  4.4604941401414487E-02  7.4772513240696267E-02  7.0996929484229865E-07
  4.5049327095030484E-02  7.4587177350233486E-02  7.0322824808846865E-07
  4.5498140070433769E-02  7.4420882768440555E-02  6.9655194950763341E-07
  4.5951424435309002E-02  7.4270162858654287E-02  6.8994057516844835E-07
  4.6409224736772468E-02  7.4102362027959556E-02  6.8339424545347780E-07
  4.6871585965750029E-02  7.3918783772842944E-02  6.7691297898844308E-07
  4.7338553561398745E-02  7.3722710469301650E-02  6.7049666141189596E-07
  4.7810173415572414E-02  7.3524071657327786E-02  6.6414503388490835E-07
  4.8286491877331590E-02  7.3330083667421136E-02  6.5785769917000222E-07
  4.8767555757498679E-02  7.3133034592969590E-02  6.5163413963516756E-07
  4.9253412333258369E-02  7.2952552314135666E-02  6.4547374080821526E-07
  4.9744109352803732E-02  7.2770393203176326E-02  6.3937581498167858E-07
  5.0239695040028808E-02  7.2590457224816565E-02  6.3333961773768392E-07
  5.0740218099267966E-02  7.2411782028848723E-02  6.2736435396302573E-07
  5.1245727720082207E-02  7.2226750079288873E-02  6.2144918053105661E-07
  5.1756273582093393E-02  7.2051198974521988E-02  6.1559321451313397E-07
  5.2271905859866706E-02  7.1877418688345060E-02  6.0979555140159783E-07
  5.2792675227841500E-02  7.1709718148538507E-02  6.0405529163451406E-07
  5.3318632865311320E-02  7.1527477362818309E-02  5.9837156701476129E-07
  5.3849830461453779E-02  7.1340292143534087E-02  5.9274356048924548E-07
  5.4386320220410359E-02  7.1171507137132425E-02  5.8717051694553213E-07
  5.4928154866416695E-02  7.0989700626352611E-02  5.8165174515815466E-07
  5.5475387648984228E-02  7.0788878035613165E-02  5.7618661330378426E-07
  5.6028072348133465E-02  7.0604863269648779E-02  5.7077454104243421E-07
  5.6586263279679069E-02  7.0434752511745372E-02  5.6541499230180290E-07
  5.7150015300567916E-02  7.0258626540016272E-02  5.6010747375313611E-07
  5.7719383814270324E-02  7.0084708200892201E-02  5.5485153733839870E-07
  5.8294424776224797E-02  6.9897317874321852E-02  5.4964678070377984E-07
  5.8875194699337094E-02  6.9735162575821283E-02  5.4449284027246912E-07
  5.9461750659534157E-02  6.9576502063218956E-02  5.3938937597200723E-07
  6.0054150301373399E-02  6.9395958558729084E-02  5.3433605182473335E-07
  6.0652451843707648E-02  6.9226034390269822E-02  5.2933251808132042E-07
  6.1256714085406741E-02  6.9045153453451233E-02  5.2437839826352794E-07
  6.1866996411136174E-02  6.8856418696138025E-02  5.1947328281259960E-07
  6.2483358797193002E-02  6.8663504560320165E-02  5.1461672864064884E-07
  6.3105861817400216E-02  6.8489842926042571E-02  5.0980826256731660E-07
  6.3734566649059729E-02  6.8309030520130223E-02  5.0504738660336442E-07
  6.4369535078964660E-02  6.8126718447487827E-02  5.0033358246791525E-07
  6.5010829509471360E-02  6.7966463166372337E-02  4.9566631527178552E-07
  6.5658512964632224E-02  6.7806728827012733E-02  4.9104503925613106E-07
  6.6312649096389537E-02  6.7641105012356775E-02  4.8646920865143115E-07
  6.6973302190830739E-02  6.7461820522489738E-02  4.8193829412672851E-07
  6.7640537174506354E-02  6.7278293964990660E-02  4.7745180141020678E-07
  6.8314419620810793E-02  6.7109354945865868E-02  4.7300928671171952E-07
  6.8995015756426512E-02  6.6941478668518600E-02  4.6861036591218626E-07
  6.9682392467832574E-02  6.6757560543601976E-02  4.6425471629695646E-07
  7.0376617307878128E-02  6.6590143191199103E-02  4.5994207186100473E-07
  7.1077758502421165E-02  6.6414342459829398E-02  4.5567221474044792E-07
  7.1785884957033350E-02  6.6241018818799707E-02  4.5144496503628327E-07
  7.2501066263772063E-02  6.6067552323979623E-02  4.4726017082148715E-07
  7.3223372708019596E-02  6.5890843631449772E-02  4.4311769989314820E-07
  7.3952875275390392E-02  6.5725432887924637E-02  4.3901743423407690E-07
  7.4689645658707324E-02  6.5556249682397080E-02  4.3495926693804448E-07
  7.5433756265047586E-02  6.5398518536977202E-02  4.3094309986682545E-07
  7.6185280222858226E-02  6.5235532229187487E-02  4.2696884079552487E-07
  7.6944291389143243E-02  6.5072585467439992E-02  4.2303640089831775E-07
  7.7710864356721879E-02  6.4911905485550064E-02  4.1914569248532720E-07
  7.8485074461559431E-02  6.4754437674661519E-02  4.1529662687211636E-07
  7.9266997790170629E-02  6.4579130422928496E-02  4.1148911271500195E-07
  8.0056711187097618E-02  6.4403833116782327E-02  4.0772305479763824E-07
  8.0854292262461741E-02  6.4228302086405523E-02  4.0399835311798086E-07
  8.1659819399590661E-02  6.4040030963766842E-02  4.0031490222872977E-07
  8.2473371762721695E-02  6.3835132199415001E-02  3.9667259385998556E-07
  8.3295029304781928E-02  6.3668583091291198E-02  3.9307133242976586E-07
  8.4124872775245413E-02  6.3498784858537688E-02  3.8951107258357597E-07
  8.4962983728069069E-02  6.3331884943976152E-02  3.8599187984399355E-07
  8.5809444529707582E-02  6.3195323747621601E-02  3.8251400519926558E-07
  8.6664338367208063E-02  6.3035072634586048E-02  3.7907795652626896E-07
  8.7527749256385012E-02  6.2884415843760824E-02  3.7568454900252196E-07
  8.8399762050077643E-02  6.2716749118907844E-02  3.7233492288677993E-07
  8.9280462446488601E-02  6.2557153813101077E-02  3.6903052713154509E-07
  9.0169936997605948E-02  6.2379922516506252E-02  3.6577307643481125E-07
  9.1068273117709431E-02  6.2212032985463989E-02  3.6256449385651265E-07
  9.1975559091961187E-02  6.2040547241450104E-02  3.5940685071941184E-07
  9.2891884085081866E-02  6.1871335940587198E-02  3.5630231164753620E-07
  9.3817338150113658E-02  6.1706514868486509E-02  3.5325308252288818E-07
  9.4752012237270283E-02  6.1547488893393204E-02  3.5026135745750718E-07
  9.5695998202875374E-02  6.1375367419746016E-02  3.4732926169477406E-07
  9.6649388818389317E-02  6.1221842839551552E-02  3.4445878942522664E-07
  9.7612277779527107E-02  6.1059567766514070E-02  3.4165174206055641E-07
  9.8584759715466069E-02  6.0897907736257514E-02  3.3890968292773022E-07
  9.9566930198145706E-02  6.0737649750827037E-02  3.3623391384314363E-07
  1.0055888575166007E-01  6.0582191393254943E-02  3.3362547602489436E-07
  1.0156072386174411E-01  6.0417055733014827E-02  3.3108517292248563E-07
  1.0257254298535387E-01  6.0262647349208068E-02  3.2861360766089336E-07
  1.0359444256034255E-01  6.0111956720624561E-02  3.2621122622051085E-07
  1.0462652301523311E-01  5.9939190400256810E-02  3.2387836010020251E-07
  1.0566888577908783E-01  5.9788989198020781E-02  3.2161527780829126E-07
  1.0672163329147617E-01  5.9629827699451347E-02  3.1942226816468063E-07
  1.0778486901254268E-01  5.9475939980672715E-02  3.1729977203093908E-07
  1.0885869743317432E-01  5.9324730436477978E-02  3.1524856365365707E-07
  1.0994322408526944E-01  5.9168019402928061E-02  3.1326996447749844E-07
  1.1103855555210909E-01  5.9017340116666650E-02  3.1136604868753884E-07
  1.1214479947883192E-01  5.8872441490074333E-02  3.0953979959888651E-07
  1.1326206458301268E-01  5.8711580472801957E-02  3.0779518847641046E-07
  1.1439046066534678E-01  5.8558179653871556E-02  3.0613716656419229E-07
  1.1553009862044133E-01  5.8396988979085365E-02  3.0457158409929969E-07
  1.1668109044771328E-01  5.8230562183928782E-02  3.0310506470453761E-07
  1.1784354926239587E-01  5.8081334860174583E-02  3.0174486752035603E-07
  1.1901758930665601E-01  5.7930114039784035E-02  3.0049875603046249E-07
  1.2020332596082109E-01  5.7766020251566047E-02  2.9937486652746895E-07
  1.2140087575471802E-01  5.7626247134712344E-02  2.9838157047692331E-07
  1.2261035637912561E-01  5.7479695416701379E-02  2.9752732063160712E-07
  1.2383188669734085E-01  5.7339006207714704E-02  2.9682047100292665E-07
  1.2506558675686005E-01  5.7201962235022205E-02  2.9626909785031139E-07
  1.2631157780117680E-01  5.7067256151854436E-02  2.9588086078102343E-07
  1.2756998228169755E-01  5.6933428036202216E-02  2.9566292011898192E-07
  1.2884092386977541E-01  5.6809937265434769E-02  2.9562192861863676E-07
  1.3012452746886402E-01  5.6687734088561446E-02  2.9576409859209889E-07
  1.3142091922679308E-01  5.6547187678328677E-02  2.9609532858316535E-07
  1.3273022654816527E-01  5.6428290471227979E-02  2.9662136473829577E-07
  1.3405257810687721E-01  5.6298877356884852E-02  2.9734796743843165E-07
  1.3538810385876496E-01  5.6172772615804605E-02  2.9828106016692492E-07
  1.3673693505437604E-01  5.6043262995826272E-02  2.9942683139330812E-07
  1.3809920425186761E-01  5.5911740105568840E-02  3.0079177416142056E-07
  1.3947504533003421E-01  5.5770561495154497E-02  3.0238266875734473E-07
  1.4086459350146485E-01  5.5649504106221000E-02  3.0420652136929755E-07
  1.4226798532583124E-01  5.5514298144756127E-02  3.0627046145035056E-07
  1.4368535872330782E-01  5.5398472713829687E-02  3.0858163835594928E-07
  1.4511685298812693E-01  5.5272530983338820E-02  3.1114714992017394E-07
  1.4656260880226768E-01  5.5142014447507617E-02  3.1397402207113063E-07
  1.4802276824928126E-01  5.5034511637575535E-02  3.1706924353004270E-07
  1.4949747482825518E-01  5.4918970939255553E-02  3.2043984511219539E-07
  1.5098687346791556E-01  5.4816918807180579E-02  3.2409300254682729E-07
  1.5249111054086953E-01  5.4709277219843901E-02  3.2803613677083993E-07
  1.5401033387799118E-01  5.4594110384169767E-02  3.3227697104134683E-07
  1.5554469278294955E-01  5.4488267234442937E-02  3.3682350191569414E-07
  1.5709433804688067E-01  5.4371920621269151E-02  3.4168385890027436E-07
  1.5865942196320879E-01  5.4253507417708638E-02  3.4686604825598013E-07
  1.6024009834261102E-01  5.4130585003913656E-02  3.5237757122412318E-07
  1.6183652252813427E-01  5.4017095559423661E-02  3.5822496017857988E-07
  1.6344885141046273E-01  5.3898478767868740E-02  3.6441330272964739E-07
  1.6507724344333444E-01  5.3774126839386788E-02  3.7094582389614679E-07
  1.6672185865911529E-01  5.3657072459952264E-02  3.7782358137238046E-07
  1.6838285868452577E-01  5.3545662726967501E-02  3.8504529421945316E-07
  1.7006040675652456E-01  5.3417479790264788E-02  3.9260728167669394E-07
  1.7175466773835193E-01  5.3308456551647482E-02  4.0050347138311598E-07
  1.7346580813573123E-01  5.3190759417132284E-02  4.0872545139894410E-07
  1.7519399611323203E-01  5.3070749893116567E-02  4.1726252466133470E-07
  1.7693940151079776E-01  5.2935405060431866E-02  4.2610177086966313E-07
  1.7870219586043645E-01  5.2820075880228794E-02  4.3522817058462939E-07
  1.8048255240307770E-01  5.2696957573780304E-02  4.4462477043047851E-07
  1.8228064610559919E-01  5.2580596444167231E-02  4.5427286479678273E-07
  1.8409665367802130E-01  5.2456632175564850E-02  4.6415220857237976E-07
  1.8593075359087294E-01  5.2338962062322018E-02  4.7424121699180227E-07
  1.8778312609273212E-01  5.2217886459028251E-02  4.8451709953074487E-07
  1.8965395322793951E-01  5.2094953472734976E-02  4.9495588704475795E-07
  1.9154341885448839E-01  5.1976586558324683E-02  5.0553234229866432E-07
  1.9345170866209557E-01  5.1846488365030412E-02  5.1621978491628563E-07
  1.9537901019044784E-01  5.1733595022737326E-02  5.2698987288006278E-07
  1.9732551284763378E-01  5.1609180163904159E-02  5.3781242506371787E-07
  1.9929140792875927E-01  5.1481661986271805E-02  5.4865535678594735E-07
  2.0127688863474485E-01  5.1356064382743566E-02  5.5948476937767623E-07
  2.0328215009131476E-01  5.1228195094703124E-02  5.7026523829978303E-07
  2.0530738936817253E-01  5.1094478349235445E-02  5.8096035535860707E-07
