 #p(MeV) \t \delta f_\\nu \t \delta f_\\nubar
  2.9704042610836593E-02  9.9232430927605988E-02  2.1272736111113679E-06
  2.9999975105400908E-02  9.8985290956838820E-02  2.1083766643746919E-06
  3.0298855886920165E-02  9.8752180955490390E-02  2.0896282703204251E-06
  3.0600714328295746E-02  9.8541332559182529E-02  2.0710279238499272E-06
  3.0905580095062401E-02  9.8365135923886363E-02  2.0525752085213317E-06
  3.1213483148303797E-02  9.8147199350091391E-02  2.0342697725514110E-06
  3.1524453747596867E-02  9.7920263335893876E-02  2.0161113058572514E-06
  3.1838522453985663E-02  9.7643079550139983E-02  1.9980995331042362E-06
  3.2155720132984837E-02  9.7403309063172849E-02  1.9802342164971403E-06
  3.2476077957612863E-02  9.7160096384211705E-02  1.9625151175996243E-06
  3.2799627411455735E-02  9.6963286453603595E-02  1.9449419125569189E-06
  3.3126400291760956E-02  9.6749294463397972E-02  1.9275141023989571E-06
  3.3456428712562505E-02  9.6525592294084306E-02  1.9102309577156237E-06
  3.3789745107836930E-02  9.6288916579498438E-02  1.8930915093274804E-06
  3.4126382234690694E-02  9.6046852463747265E-02  1.8760945726673075E-06
  3.4466373176579627E-02  9.5794389710173775E-02  1.8592387881089253E-06
  3.4809751346560065E-02  9.5580814893617194E-02  1.8425226637734600E-06
  3.5156550490572612E-02  9.5347338095886247E-02  1.8259446126922627E-06
  3.5506804690758682E-02  9.5119264974655102E-02  1.8095029891728753E-06
  3.5860548368809773E-02  9.4905505440614962E-02  1.7931961149732700E-06
  3.6217816289350481E-02  9.4704215009917436E-02  1.7770222702296778E-06
  3.6578643563354905E-02  9.4471980187435134E-02  1.7609796888283656E-06
  3.6943065651597294E-02  9.4286128724493753E-02  1.7450665996733705E-06
  3.7311118368137032E-02  9.4069334856577771E-02  1.7292813017490003E-06
  3.7682837883838187E-02  9.3837432430725926E-02  1.7136222356825191E-06
  3.8058260729924409E-02  9.3604253795476294E-02  1.6980880239183690E-06
  3.8437423801568976E-02  9.3397708616827876E-02  1.6826774759105176E-06
  3.8820364361520691E-02  9.3171236833107449E-02  1.6673895697640490E-06
  3.9207120043766086E-02  9.2942049188346879E-02  1.6522234231238000E-06
  3.9597728857227753E-02  9.2731764404450759E-02  1.6371782630863086E-06
  3.9992229189499892E-02  9.2517707658579806E-02  1.6222533960826872E-06
  4.0390659810620767E-02  9.2298050316620611E-02  1.6074481774455459E-06
  4.0793059876882934E-02  9.2077487426767357E-02  1.5927620089116555E-06
  4.1199468934681467E-02  9.1852836704369181E-02  1.5781943596496859E-06
  4.1609926924400235E-02  9.1627590895975788E-02  1.5637447717795539E-06
  4.2024474184337315E-02  9.1394163096478132E-02  1.5494128347730498E-06
  4.2443151454669120E-02  9.1214592249060825E-02  1.5351981413552421E-06
  4.2865999881454245E-02  9.0988900418094459E-02  1.5211002468935509E-06
  4.3293061020677245E-02  9.0803529611555037E-02  1.5071186458220083E-06
  4.3724376842332449E-02  9.0600133469092792E-02  1.4932527650550233E-06
  4.4159989734548689E-02  9.0372778604552687E-02  1.4795019689478535E-06
  4.4599942507755119E-02  9.0141392516724053E-02  1.4658655696985895E-06
  4.5044278398888304E-02  8.9898009849431082E-02  1.4523428392206617E-06
  4.5493041075641588E-02  8.9678981893115975E-02  1.4389330217983363E-06
  4.5946274640756367E-02  8.9460247197283446E-02  1.4256353427238960E-06
  4.6404023636356567E-02  8.9245091664147430E-02  1.4124490175570885E-06
  4.6866333048325923E-02  8.9033403732739408E-02  1.3993732770383543E-06
  4.7333248310729048E-02  8.8847420615810455E-02  1.3864074071122338E-06
  4.7804815310276638E-02  8.8648296319519218E-02  1.3735507884847344E-06
  4.8281080390834917E-02  8.8462151712006817E-02  1.3608029201597163E-06
  4.8762090357980160E-02  8.8249411359601335E-02  1.3481634212713443E-06
  4.9247892483598683E-02  8.8034203828565305E-02  1.3356320162356713E-06
  4.9738534510532381E-02  8.7815265931915118E-02  1.3232085118030990E-06
  5.0234064657270906E-02  8.7600174199306199E-02  1.3108927730013550E-06
  5.0734531622690190E-02  8.7386548539200012E-02  1.2986847019314483E-06
  5.1239984590838616E-02  8.7168342385995912E-02  1.2865842216699875E-06
  5.1750473235770464E-02  8.6967821175007301E-02  1.2745912617516896E-06
  5.2266047726427761E-02  8.6763697682754021E-02  1.2627057286330913E-06
  5.2786758731570758E-02  8.6552531446691311E-02  1.2509274516990985E-06
  5.3312657424757375E-02  8.6342120830336641E-02  1.2392561173341434E-06
  5.3843795489372348E-02  8.6141694512022526E-02  1.2276912152541549E-06
  5.4380225123706619E-02  8.5953186316253469E-02  1.2162320151659745E-06
  5.4921999046086988E-02  8.5769988415082460E-02  1.2048775766329327E-06
  5.5469170500057306E-02  8.5576818574209082E-02  1.1936267822749122E-06
  5.6021793259610778E-02  8.5352661722660886E-02  1.1824783805327897E-06
  5.6579921634474957E-02  8.5115572020828464E-02  1.1714310274312007E-06
  5.7143610475448928E-02  8.4865365574429641E-02  1.1604833220058447E-06
  5.7712915179793815E-02  8.4647089911312409E-02  1.1496338341613218E-06
  5.8287891696677224E-02  8.4435603263505757E-02  1.1388811285890762E-06
  5.8868596532671479E-02  8.4248676653159799E-02  1.1282237997857642E-06
  5.9455086757306999E-02  8.4096091376712159E-02  1.1176605228484141E-06
  6.0047420008680963E-02  8.3915942264157287E-02  1.1071901046325082E-06
  6.0645654499121550E-02  8.3723076834528634E-02  1.0968115170111080E-06
  6.1249849020909075E-02  8.3517011715634776E-02  1.0865239030960208E-06
  6.1860062952053638E-02  8.3316975808005178E-02  1.0763265594444906E-06
  6.2476356262130842E-02  8.3098957518450686E-02  1.0662189042222591E-06
  6.3098789518175130E-02  8.2899050213931028E-02  1.0562004422957037E-06
  6.3727423890632198E-02  8.2677042341694720E-02  1.0462707344839306E-06
  6.4362321159370711E-02  8.2500469722100761E-02  1.0364293737868289E-06
  6.5003543719753559E-02  8.2294226891254457E-02  1.0266759679377716E-06
  6.5651154588770036E-02  8.2099594199439213E-02  1.0170101244729691E-06
  6.6305217411228898E-02  8.1896782040604937E-02  1.0074314265370790E-06
  6.6965796466013000E-02  8.1702110850431373E-02  9.9793939769585163E-07
  6.7632956672396619E-02  8.1506938928825282E-02  9.8853347516995624E-07
  6.8306763596425193E-02  8.1304121929778025E-02  9.7921300728255129E-07
  6.8987283457359216E-02  8.1097758999292266E-02  9.6997727603587034E-07
  6.9674583134181803E-02  8.0899429729612435E-02  9.6082553342763533E-07
  7.0368730172171295E-02  8.0697764123709756E-02  9.5175703699258745E-07
  7.1069792789539635E-02  8.0506682737257709E-02  9.4277107534411963E-07
  7.1777839884136274E-02  8.0307586348959500E-02  9.3386698137476924E-07
  7.2492941040219305E-02  8.0106179575171202E-02  9.2504413519396657E-07
  7.3215166535294168E-02  7.9916764916913977E-02  9.1630196087382940E-07
  7.3944587347019836E-02  7.9736132265568679E-02  9.0763992179775858E-07
  7.4681275160184676E-02  7.9556650090966949E-02  8.9905752352324621E-07
  7.5425302373751002E-02  7.9365575031044577E-02  8.9055432670888835E-07
  7.6176742107970513E-02  7.9173251989059640E-02  8.8212995154224583E-07
  7.6935668211569955E-02  7.8965163418976081E-02  8.7378405777514418E-07
  7.7702155269008907E-02  7.8757409624574407E-02  8.6551630161630293E-07
  7.8476278607809688E-02  7.8546692927378578E-02  8.5732628335088274E-07
  7.9258114305960109E-02  7.8361979105080359E-02  8.4921350434320602E-07
  8.0047739199390219E-02  7.8166103151714406E-02  8.4117734446229160E-07
  8.0845230889523570E-02  7.7995851406915395E-02  8.3321706000702050E-07
  8.1650667750903350E-02  7.7805171568292239E-02  8.2533179664655306E-07
  8.2464128938895043E-02  7.7617216707665609E-02  8.1752061021536958E-07
  8.3285694397465193E-02  7.7457106436099904E-02  8.0978248906158064E-07
  8.4115444867038369E-02  7.7279954542516988E-02  8.0211637071792374E-07
  8.4953461892431678E-02  7.7082711878353499E-02  7.9452114873579839E-07
  8.5799827830868924E-02  7.6885580963205941E-02  7.8699568361566426E-07
  8.6654625860074372E-02  7.6686662568870800E-02  7.7953883399184631E-07
  8.7517939986446983E-02  7.6484118978330851E-02  7.7214950878836470E-07
  8.8389855053316341E-02  7.6271206854914175E-02  7.6482672832561984E-07
  8.9270456749280899E-02  7.6091605684076982E-02  7.5756967535062978E-07
  9.0159831616628841E-02  7.5909628655624561E-02  7.5037772124368229E-07
  9.1058067059843317E-02  7.5727627835012676E-02  7.4325042631965170E-07
  9.1965251354192257E-02  7.5541047164859418E-02  7.3618752053563408E-07
  9.2881473654403718E-02  7.5349036570187697E-02  7.2918887345936854E-07
  9.3806824003427589E-02  7.5154576048392721E-02  7.2225446132548547E-07
  9.4741393341284688E-02  7.4951013261991564E-02  7.1538433798691123E-07
  9.5685273514004243E-02  7.4772512055911358E-02  7.0857861651777157E-07
  9.6638557282649848E-02  7.4587176164837288E-02  7.0183745649616789E-07
  9.7601338332435866E-02  7.4420881582484888E-02  6.9516104331142570E-07
  9.8573711281934526E-02  7.4270161672181312E-02  6.8854955295226316E-07
  9.9555771692374520E-02  7.4102360840920353E-02  6.8200310572128956E-07
  1.0054761607703247E-01  7.3918782585192036E-02  6.7552172016550976E-07
  1.0154934191071795E-01  7.3722709281002788E-02  6.6910528187585618E-07
  1.0256104763935302E-01  7.3524070468372379E-02  6.6275353201555600E-07
  1.0358283268964683E-01  7.3330082477820635E-02  6.5646607336483715E-07
  1.0461479747886715E-01  7.3133033402714098E-02  6.5024238832026365E-07
  1.0565704342470914E-01  7.2952551123269899E-02  6.4408186244581976E-07
  1.0670967295526192E-01  7.2770392011694246E-02  6.3798380807087738E-07
  1.0777278951907503E-01  7.2590456032723016E-02  6.3194748081104549E-07
  1.0884649759532521E-01  7.2411780836145995E-02  6.2597208558462455E-07
  1.0993090270408379E-01  7.2226748885957912E-02  6.2005677929635546E-07
  1.1102611141668697E-01  7.2051197780587939E-02  6.1420067904900976E-07
  1.1213223136620951E-01  7.1877417493811629E-02  6.0840288036636349E-07
  1.1324937125804227E-01  7.1709716953421515E-02  6.0266248371780063E-07
  1.1437764088057525E-01  7.1527476167075943E-02  5.9697862091816361E-07
  1.1551715111598745E-01  7.1340290947151261E-02  5.9135047485558320E-07
  1.1666801395114397E-01  7.1171505940159141E-02  5.8577729033052736E-07
  1.1783034248860139E-01  7.0989699428751149E-02  5.8025837604856905E-07
  1.1900425095772323E-01  7.0788876837329040E-02  5.7479310014448598E-07
  1.2018985472590625E-01  7.0604862070727428E-02  5.6938088225570739E-07
  1.2138727030991785E-01  7.0434751312224139E-02  5.6402118629585803E-07
  1.2259661538734713E-01  7.0258625339876923E-02  5.5871351892356688E-07
  1.2381800880817000E-01  7.0084707000139398E-02  5.5345743206815834E-07
  1.2505157060642907E-01  6.9897316672916446E-02  5.4825252336317644E-07
  1.2629742201203017E-01  6.9735161373832288E-02  5.4309842921916200E-07
  1.2755568546265642E-01  6.9576500860654575E-02  5.3799480955099916E-07
  1.2882648461580112E-01  6.9395957355526644E-02  5.3294132837710013E-07
  1.3010994436092002E-01  6.9226033186457592E-02  5.2793763602399105E-07
  1.3140619083170521E-01  6.9045152248997169E-02  5.2298335616688930E-07
  1.3271535141848118E-01  6.8856417491018965E-02  5.1807807938213506E-07
  1.3403755478072393E-01  6.8663503354523259E-02  5.1322136265449887E-07
  1.3537293085970545E-01  6.8489841719620553E-02  5.0841273282229471E-07
  1.3672161089126375E-01  6.8309029313061917E-02  5.0365169188456088E-07
  1.3808372741870045E-01  6.8126717239767820E-02  4.9893772153636523E-07
  1.3945941430580608E-01  6.7966461958061108E-02  4.9427028686225865E-07
  1.4084880675001624E-01  6.7806727618110602E-02  4.8964884207711375E-07
  1.4225204129569835E-01  6.7641103802845964E-02  4.8507284138514776E-07
  1.4366925584757029E-01  6.7461819312330779E-02  4.8054175542915978E-07
  1.4510058968425343E-01  6.7278292754170368E-02  4.7605508990942440E-07
  1.4654618347196061E-01  6.7109353734423713E-02  4.7161240096439222E-07
  1.4800617927831983E-01  6.6941477456456039E-02  4.6721330432074965E-07
  1.4948072058633644E-01  6.6757559330872532E-02  4.6285747710809407E-07
  1.5096995230849419E-01  6.6590141977847198E-02  4.5854465322777136E-07
  1.5247402080099667E-01  6.6414341245829830E-02  4.5427461478383567E-07
  1.5399307387815012E-01  6.6241017604157570E-02  4.5004718188121483E-07
  1.5552726082689089E-01  6.6067551108692932E-02  4.4586220261409131E-07
  1.5707673242145648E-01  6.5890842415507647E-02  4.4171954480657029E-07
  1.5864164093820277E-01  6.5725431671357096E-02  4.3761909046882835E-07
  1.6022214017056949E-01  6.5556248465191910E-02  4.3356073272202061E-07
  1.6181838544419472E-01  6.5398517319164795E-02  4.2954437345532362E-07
  1.6343053363217908E-01  6.5235531010751552E-02  4.2556992047134016E-07
  1.6505874317050304E-01  6.5072584248379056E-02  4.2163728498138074E-07
  1.6670317407359753E-01  6.4911904265868958E-02  4.1774637936734346E-07
  1.6836398795006946E-01  6.4754436454367764E-02  4.1389711501135208E-07
  1.7004134801858353E-01  6.4579129201970634E-02  4.1008940057417064E-07
  1.7173541912390364E-01  6.4403831895158886E-02  4.0632314077293478E-07
  1.7344636775309275E-01  6.4228300864114102E-02  4.0259823548975855E-07
  1.7517436205187437E-01  6.4040029740769985E-02  3.9891457913412794E-07
  1.7691957184115767E-01  6.3835130975664081E-02  3.9527206328124584E-07
  1.7868216863372705E-01  6.3668581866891893E-02  3.9167059219282111E-07
  1.8046232565109713E-01  6.3498783633478620E-02  3.8811012035797953E-07
  1.8226021784053673E-01  6.3331883718263204E-02  3.8459071314284890E-07
  1.8407602189226219E-01  6.3195322521337596E-02  3.8111262137915400E-07
  1.8590991625680173E-01  6.3035071407661861E-02  3.7767635278676971E-07
  1.8776208116253224E-01  6.2884414616220671E-02  3.7428272238588234E-07
  1.8963269863339263E-01  6.2716747890701141E-02  3.7093287030313566E-07
  1.9152195250677181E-01  6.2557152584247530E-02  3.6762824542735227E-07
  1.9343002845157536E-01  6.2379921286953424E-02  3.6437056247785184E-07
  1.9535711398647274E-01  6.2212031755235334E-02  3.6116174460888875E-07
  1.9730339849832607E-01  6.2040546010532799E-02  3.5800386328881271E-07
  1.9926907326080182E-01  6.1871334708985128E-02  3.5489908331507253E-07
  2.0125433145316896E-01  6.1706513636209638E-02  3.5184961074871273E-07
  2.0325936817928372E-01  6.1547487660455626E-02  3.4885763988100847E-07
  2.0528438048676409E-01  6.1375366186108761E-02  3.4592529613470440E-07
  2.0732956738635375E-01  6.1221841605265115E-02  3.4305457387983330E-07
  2.0939512987148151E-01  6.1059566531552034E-02  3.4024727470733255E-07
  2.1148127093801361E-01  6.0897906500620033E-02  3.3750496210348805E-07
  2.1358819560420322E-01  6.0737648514516455E-02  3.3482893796090239E-07
  2.1571611093083895E-01  6.0582190156283265E-02  3.3222024346421797E-07
  2.1786522604159447E-01  6.0417054495353069E-02  3.2967968193775661E-07
  2.2003575214357987E-01  6.0262646110884631E-02  3.2720785631477929E-07
  2.2222790254809840E-01  6.0111955481647814E-02  3.2480521233847871E-07
  2.2444189269161038E-01  5.9939189160562241E-02  3.2247208124176134E-07
  2.2667794015690509E-01  5.9788987957669439E-02  3.2020873125738868E-07
  2.2893626469448364E-01  5.9629826458415178E-02  3.1801545092908640E-07
  2.3121708824415613E-01  5.9475938738963556E-02  3.1589268084203951E-07
  2.3352063495685266E-01  5.9324729194100097E-02  3.1384119496624124E-07
  2.3584713121665177E-01  5.9168018159862425E-02  3.1186231446952748E-07
  2.3819680566302875E-01  5.9017338872926511E-02  3.0995811328059908E-07
  2.4056988921332623E-01  5.8872440245672168E-02  3.0813157460756867E-07
  2.4296661508544670E-01  5.8711579227688888E-02  3.0638666981043283E-07
  2.4538721882077291E-01  5.8558178408065042E-02  3.0472835033070321E-07
  2.4783193830731629E-01  5.8396987732559968E-02  3.0316246662959649E-07
  2.5030101380309550E-01  5.8230560936666474E-02  3.0169564255831354E-07
  2.5279468795974713E-01  5.8081333612220953E-02  3.0033513748975492E-07
  2.5531320584637446E-01  5.7930112791130681E-02  2.9908871514438260E-07
  2.5785681497363061E-01  5.7766019002173916E-02  2.9796451205238900E-07
  2.6042576531804323E-01  5.7626245884647882E-02  2.9697089991716158E-07
  2.6302030934658127E-01  5.7479694165943243E-02  2.9611633172958348E-07
  2.6564070204146700E-01  5.7339004956277508E-02  2.9540916173942620E-07
  2.6828720092523406E-01  5.7201960982914545E-02  2.9485746643878816E-07
  2.7096006608603590E-01  5.7067254899081279E-02  2.9446890554897901E-07
  2.7365956020320698E-01  5.6933426782764300E-02  2.9425063926301450E-07
  2.7638594857307702E-01  5.6809936011359398E-02  2.9420932008020916E-07
  2.7913949913504366E-01  5.6687732833850105E-02  2.9435116005838398E-07
  2.8192048249790508E-01  5.6547186422926922E-02  2.9468205751411182E-07
  2.8472917196645381E-01  5.6428289215194598E-02  2.9520775837875505E-07
  2.8756584356833620E-01  5.6298876100187252E-02  2.9593402281747050E-07
  2.9043077608117940E-01  5.6172771358449149E-02  2.9686677409676937E-07
  2.9332425105998911E-01  5.6043261737800117E-02  2.9801220046912575E-07
  2.9624655286481899E-01  5.5911738846862902E-02  2.9937679476111203E-07
  2.9919796868871690E-01  5.5770560235737746E-02  3.0096733704132812E-07
  3.0217878858594938E-01  5.5649502846146864E-02  3.0279083327831663E-07
  3.0518930550050710E-01  5.5514296883980352E-02  3.0485441270863353E-07
  3.0822981529489324E-01  5.5398471452403300E-02  3.0716522455616570E-07
  3.1130061677920146E-01  5.5272529721228952E-02  3.0973036659453249E-07
  3.1440201174048105E-01  5.5142013184696984E-02  3.1255686468246730E-07
  3.1753430497239460E-01  5.5034510374125385E-02  3.1565170744279166E-07
  3.2069780430517364E-01  5.4918969675138603E-02  3.1902192557661943E-07
  3.2389282063587038E-01  5.4816917542430732E-02  3.2267469469376022E-07
  3.2711966795891023E-01  5.4709275954440646E-02  3.2661743561013806E-07
  3.3037866339695232E-01  5.4594109118086966E-02  3.3085787146167509E-07
  3.3367012723205408E-01  5.4488265967702378E-02  3.3540399868437424E-07
  3.3699438293714573E-01  5.4371919353835903E-02  3.4026394666312857E-07
  3.4035175720782407E-01  5.4253506149571730E-02  3.4544572153802908E-07
  3.4374257999445451E-01  5.4130583735055152E-02  3.5095682447231656E-07
  3.4716718453459899E-01  5.4017094289865272E-02  3.5680378788568655E-07
  3.5062590738576799E-01  5.3898477497590948E-02  3.6299169954215060E-07
  3.5411908845849133E-01  5.3774125568368435E-02  3.6952378469660662E-07
  3.5764707104972709E-01  5.3657071188209698E-02  3.7640110132249554E-07
  3.6121020187659847E-01  5.3545661454512596E-02  3.8362236876935643E-07
  3.6480883111046641E-01  5.3417478517045626E-02  3.9118390657083432E-07
  3.6844331241134570E-01  5.3308455277715064E-02  3.9907964267071687E-07
  3.7211400296265995E-01  5.3190758142458376E-02  4.0730116543596012E-07
  3.7582126350634343E-01  5.3070748617691385E-02  4.1583777811088422E-07
  3.7956545837829547E-01  5.2935403784208600E-02  4.2467656070247251E-07
  3.8334695554418502E-01  5.2820074603262053E-02  4.3380249407943181E-07
  3.8716612663561201E-01  5.2696956296045414E-02  4.4319862515515308E-07
  3.9102334698663166E-01  5.2580595165681331E-02  4.5284624846918884E-07
  3.9491899567064054E-01  5.2456630896303841E-02  4.6272511883004865E-07
  3.9885345553762858E-01  5.2338960782301311E-02  4.7281365117698237E-07
  4.0282711325180720E-01  5.2217885178235141E-02  4.8308905458180827E-07
  4.0684035932960760E-01  5.2094952191160816E-02  4.9352735949836354E-07
  4.1089358817805771E-01  5.1976585275978933E-02  5.0410332830651134E-07
  4.1498719813354773E-01  5.1846487081875309E-02  5.1479028021226585E-07
  4.1912159150097172E-01  5.1733593738817904E-02  5.2555987276628065E-07
  4.2329717459326710E-01  5.1609178879182475E-02  5.3638192440975423E-07
  4.2751435777134794E-01  5.1481660700733671E-02  5.4722435002824829E-07
  4.3177355548442875E-01  5.1356063096388904E-02  5.5805325051892461E-07
  4.3607518631075909E-01  5.1228193807519383E-02  5.6883320091042913E-07
  4.4041967299875850E-01  5.1094477061199420E-02  5.7952779262543921E-07
