 #p(MeV) \t \delta f_\\nu \t \delta f_\\nubar
  6.9200067031411377E-02  9.9232426626439066E-02  2.1219179184506897E-06
  6.9889486607356666E-02  9.8985286652704424E-02  2.1030205788490725E-06
  7.0585774664389936E-02  9.8752176648535805E-02  2.0842717883746747E-06
  7.1288999631134595E-02  9.8541328249643997E-02  2.0656710429698923E-06
  7.1999230617947774E-02  9.8365131612134157E-02  2.0472179272341466E-06
  7.2716537423712577E-02  9.8147195035677037E-02  2.0289120904090900E-06
  7.3440990542697399E-02  9.7920259018720368E-02  2.0107532233261294E-06
  7.4172661171483967E-02  9.7643075229669155E-02  1.9927410513581966E-06
  7.4911621215964341E-02  9.7403304739806990E-02  1.9748753372243737E-06
  7.5657943298407387E-02  9.7160092057915301E-02  1.9571558427252760E-06
  7.6411700764596011E-02  9.6963282124875302E-02  1.9395822435147064E-06
  7.7172967691035155E-02  9.6749290132053037E-02  1.9221540396389231E-06
  7.7941818892231798E-02  9.6525587960017728E-02  1.9048705006784089E-06
  7.8718329928047628E-02  9.6288912242569191E-02  1.8877306564498674E-06
  7.9502577111124448E-02  9.6046848123895315E-02  1.8707333213803661E-06
  8.0294637514384301E-02  9.5794385367284227E-02  1.8538771348377609E-06
  8.1094588978603541E-02  9.5580810548103093E-02  1.8371606039369545E-06
  8.1902510120062902E-02  9.5347333747529281E-02  1.8205821407026646E-06
  8.2718480338273767E-02  9.5119260623507382E-02  1.8041400984319940E-06
  8.3542579823780938E-02  9.4905501086823441E-02  1.7878327979016004E-06
  8.4374889566043776E-02  9.4704210653608914E-02  1.7716585183793075E-06
  8.5215491361395321E-02  9.4471975828269592E-02  1.7556154930215224E-06
  8.6064467821080973E-02  9.4286124362961257E-02  1.7397019505586715E-06
  8.6921902379377469E-02  9.4069330492338288E-02  1.7239161904743933E-06
  8.7787879301792049E-02  9.3837428063609854E-02  1.7082566540113105E-06
  8.8662483693344202E-02  9.3604249425463429E-02  1.6927219641793535E-06
  8.9545801506929187E-02  9.3397704244197702E-02  1.6773109309789567E-06
  9.0437919551765208E-02  9.3171232457640182E-02  1.6620225330608384E-06
  9.1338925501924892E-02  9.2942044810008201E-02  1.6468558886156366E-06
  9.2248907904951286E-02  9.2731760023438844E-02  1.6318102252877349E-06
  9.3167956190560286E-02  9.2517703274849483E-02  1.6168848501094208E-06
  9.4096160679429164E-02  9.2298045930107889E-02  1.6020791191432088E-06
  9.5033612592073130E-02  9.2077483037458760E-02  1.5873924348827779E-06
  9.5980404057810234E-02  9.1852832312219052E-02  1.5728242672008822E-06
  9.6936628123815136E-02  9.1627586500974328E-02  1.5583741586642670E-06
  9.7902378764263942E-02  9.1394158698535344E-02  1.5440416986410703E-06
  9.8877750889569169E-02  9.1214587848753470E-02  1.5298264795354656E-06
  9.9862840355707444E-02  9.0988896014922979E-02  1.5157280564359135E-06
  1.0085774397363995E-01  9.0803525205950628E-02  1.5017459235384427E-06
  1.0186255951882636E-01  9.0600129060858278E-02  1.4878795075245481E-06
  1.0287738574083406E-01  9.0372774193426375E-02  1.4741281725165414E-06
  1.0390232237304295E-01  9.0141388102658884E-02  1.4604912304792101E-06
  1.0493747014244660E-01  8.9898005432294148E-02  1.4469679530519818E-06
  1.0598293077955172E-01  8.9678977473165139E-02  1.4335575840748733E-06
  1.0703880702837537E-01  8.9460242774516655E-02  1.4202593482834131E-06
  1.0810520265654280E-01  8.9245087238598531E-02  1.4070724607023128E-06
  1.0918222246548492E-01  8.9033399304439528E-02  1.3939961516111574E-06
  1.1026997230073791E-01  8.8847416185031003E-02  1.3810297067520780E-06
  1.1136855906234558E-01  8.8648291886113173E-02  1.3681725068353696E-06
  1.1247809071536474E-01  8.8462147276107919E-02  1.3554240508810080E-06
  1.1359867630047579E-01  8.8249406920917414E-02  1.3427839579982826E-06
  1.1473042594469894E-01  8.8034199387063680E-02  1.3302519525659067E-06
  1.1587345087221683E-01  8.7815261487549964E-02  1.3178278412967391E-06
  1.1702786341530552E-01  8.7600169752112905E-02  1.3055114891809162E-06
  1.1819377702537377E-01  8.7386544089188445E-02  1.2933027982938029E-06
  1.1937130628411299E-01  8.7168337933110684E-02  1.2812016917826877E-06
  1.2056056691475764E-01  8.6967816719433391E-02  1.2692080993383178E-06
  1.2176167579345802E-01  8.6763693224447089E-02  1.2573219275300910E-06
  1.2297475096076685E-01  8.6552526985569186E-02  1.2455430058281416E-06
  1.2419991163323937E-01  8.6342116366402683E-02  1.2338710207026109E-06
  1.2543727821514972E-01  8.6141690045378472E-02  1.2223054618953684E-06
  1.2668697231032400E-01  8.5953181847022289E-02  1.2108455991020743E-06
  1.2794911673409057E-01  8.5769983943315975E-02  1.1994904918995154E-06
  1.2922383552535055E-01  8.5576814099794299E-02  1.1882390229407432E-06
  1.3051125395876717E-01  8.5352657245257660E-02  1.1770899407007915E-06
  1.3181149855707799E-01  8.5115567540291787E-02  1.1660419012384861E-06
  1.3312469710352859E-01  8.4865361090612268E-02  1.1550935036229633E-06
  1.3445097865443073E-01  8.4647085424553570E-02  1.1442433177768739E-06
  1.3579047355184592E-01  8.4435598773873272E-02  1.1334899083839353E-06
  1.3714331343639441E-01  8.4248672160913168E-02  1.1228318699414017E-06
  1.3850963126019256E-01  8.4096086882217022E-02  1.1122678775573690E-06
  1.3988956129991914E-01  8.3915937767110496E-02  1.1017967379810718E-06
  1.4128323917001107E-01  8.3723072334787055E-02  1.0914174227884269E-06
  1.4269080183599159E-01  8.3517007213049485E-02  1.0811290747318055E-06
  1.4411238762793022E-01  8.3316971302634893E-02  1.0709309899935828E-06
  1.4554813625403792E-01  8.3098953010094345E-02  1.0608225863493215E-06
  1.4699818881439652E-01  8.2899045702777036E-02  1.0508033682733493E-06
  1.4846268781482577E-01  8.2677037827496871E-02  1.0408728961925367E-06
  1.4994177718088858E-01  8.2500465205342294E-02  1.0310307627137739E-06
  1.5143560227203490E-01  8.2294222371606413E-02  1.0212765751264952E-06
  1.5294430989588745E-01  8.2099589677018456E-02  1.0116099403318894E-06
  1.5446804832266964E-01  8.1896777515313726E-02  1.0020304407804278E-06
  1.5600696729977648E-01  8.1702106322347645E-02  9.9253759946586954E-07
  1.5756121806649179E-01  8.1506934397933675E-02  9.8313085308704149E-07
  1.5913095336885077E-01  8.1304117395985115E-02  9.7380954963489388E-07
  1.6071632747465217E-01  8.1097754462548841E-02  9.6457297100003615E-07
  1.6231749618861835E-01  8.0899425189995128E-02  9.5542036909855872E-07
  1.6393461686770747E-01  8.0697759581171064E-02  9.4635100134258849E-07
  1.6556784843657840E-01  8.0506678191901423E-02  9.3736415621323007E-07
  1.6721735140320856E-01  8.0307581800687894E-02  9.2845916647041445E-07
  1.6888328787466828E-01  8.0106175023947471E-02  9.1963541209071837E-07
  1.7056582157305253E-01  7.9916760362857178E-02  9.1089231706210013E-07
  1.7226511785157012E-01  7.9736127708762816E-02  9.0222934512573437E-07
  1.7398134371079485E-01  7.9556645531414436E-02  8.9364600274875078E-07
  1.7571466781507691E-01  7.9365570468610022E-02  8.8514185145808959E-07
  1.7746526050911934E-01  7.9173247423720519E-02  8.7671651228748582E-07
  1.7923329383471828E-01  7.8965158850553399E-02  8.6836964591928911E-07
  1.8101894154767079E-01  7.8757405053064153E-02  8.6010090929505593E-07
  1.8282237913485130E-01  7.8546688352741575E-02  8.5190990337082359E-07
  1.8464378383145719E-01  7.8361974527592776E-02  8.4379613032668961E-07
  1.8648333463842715E-01  7.8166098571249218E-02  8.3575897090789939E-07
  1.8834121234003295E-01  7.7995846823746176E-02  8.2779768229232017E-07
  1.9021759952164560E-01  7.7805166982193377E-02  8.1991141102906421E-07
  1.9211268058768005E-01  7.7617212118663181E-02  8.1209921381925453E-07
  1.9402664177971679E-01  7.7457101844493531E-02  8.0436007951855760E-07
  1.9595967119480592E-01  7.7279949948118432E-02  7.9669294517936533E-07
  1.9791195880395196E-01  7.7082707280940174E-02  7.8909670331079851E-07
  1.9988369647078366E-01  7.6885576362774211E-02  7.8157021325255315E-07
  2.0187507797041010E-01  7.6686657965394228E-02  7.7411233226315554E-07
  2.0388629900846347E-01  7.6484114371762696E-02  7.6672196797399288E-07
  2.0591755724033275E-01  7.6271202245133077E-02  7.5939813946063400E-07
  2.0796905229058865E-01  7.6091601071435810E-02  7.5214002799518049E-07
  2.1004098577260155E-01  7.5909624040085860E-02  7.4494700333667727E-07
  2.1213356130835556E-01  7.5727623216563719E-02  7.3781862416608364E-07
  2.1424698454845986E-01  7.5541042543436965E-02  7.3075461880487143E-07
  2.1638146319235921E-01  7.5349031945716419E-02  7.2375485518473692E-07
  2.1853720700874571E-01  7.5154571420830041E-02  7.1681930804713200E-07
  2.2071442785617404E-01  7.4951008631220173E-02  7.0994803055698602E-07
  2.2291333970388275E-01  7.4772507422187551E-02  7.0314113606954831E-07
  2.2513415865282160E-01  7.4587171528070303E-02  6.9639878478209914E-07
  2.2737710295688943E-01  7.4420876942865921E-02  6.8972116267232779E-07
  2.2964239304438380E-01  7.4270157029864586E-02  6.8310844602887833E-07
  2.3193025153966321E-01  7.4102356195703920E-02  6.7656075529714800E-07
  2.3424090328502592E-01  7.3918777936888405E-02  6.7007810937627411E-07
  2.3657457536280713E-01  7.3722704629460747E-02  6.6366039441791600E-07
  2.3893149711769540E-01  7.3524065813548978E-02  6.5730735217926947E-07
  2.4131190017927162E-01  7.3330077819752759E-02  6.5101858603560500E-07
  2.4371601848477292E-01  7.3133028741354703E-02  6.4479357897945104E-07
  2.4614408830208356E-01  7.2952546458786904E-02  6.3863171713825174E-07
  2.4859634825295374E-01  7.2770387344056303E-02  6.3253231304894091E-07
  2.5107303933645064E-01  7.2590451361941116E-02  6.2649462186331030E-07
  2.5357440495264372E-01  7.2411776162220026E-02  6.2051784776416578E-07
  2.5610069092652399E-01  7.2226744208804067E-02  6.1460114731046419E-07
  2.5865214553216331E-01  7.2051193100296174E-02  6.0874363800061283E-07
  2.6122901951711436E-01  7.1877412810387703E-02  6.0294441621726242E-07
  2.6383156612705250E-01  7.1709712266919745E-02  5.9720258322791626E-07
  2.6646004113066374E-01  7.1527471477325216E-02  5.9151727143220221E-07
  2.6911470284478123E-01  7.1340286254085616E-02  5.8588766423730338E-07
  2.7179581215977183E-01  7.1171501243969065E-02  5.8031300696162881E-07
  2.7450363256517457E-01  7.0989694729283098E-02  5.7479260882917353E-07
  2.7723843017559602E-01  7.0788872134364272E-02  5.6932583849268605E-07
  2.8000047375686354E-01  7.0604857364440041E-02  5.6391211610231049E-07
  2.8279003475243764E-01  7.0434746602757198E-02  5.5855090608452683E-07
  2.8560738731008856E-01  7.0258620627155544E-02  5.5324171551153556E-07
  2.8845280830883951E-01  7.0084702284178194E-02  5.4798409627577148E-07
  2.9132657738617634E-01  6.9897311953558194E-02  5.4277764514229648E-07
  2.9422897696552930E-01  6.9735156651342695E-02  5.3762199700654419E-07
  2.9716029228402890E-01  6.9576496135059007E-02  5.3251681020239903E-07
  3.0012081142053837E-01  6.9395952626571153E-02  5.2746174734035179E-07
  3.0311082532396394E-01  6.9226028454243804E-02  5.2245645743591226E-07
  3.0613062784184880E-01  6.9045147513388860E-02  5.1750056285882105E-07
  3.0918051574925198E-01  6.8856412751911775E-02  5.1259365287804645E-07
  3.1226078877791297E-01  6.8663498611853252E-02  5.0773528317112300E-07
  3.1537174964570913E-01  6.8489836973579646E-02  5.0292497937854724E-07
  3.1851370408640584E-01  6.8309024563551257E-02  4.9816224273700230E-07
  3.2168696087970255E-01  6.8126712486750229E-02  4.9344655462603814E-07
  3.2489183188157800E-01  6.7966457201759520E-02  4.8877738009359416E-07
  3.2812863205493908E-01  6.7806722858510055E-02  4.8415417377441051E-07
  3.3139767950057425E-01  6.7641099039862582E-02  4.7957639084295474E-07
  3.3469929548841465E-01  6.7461814545795404E-02  4.7504350306097409E-07
  3.3803380448910753E-01  6.7278287984018609E-02  4.7055501714718021E-07
  3.4140153420590486E-01  6.7109348960799675E-02  4.6611049017103846E-07
  3.4480281560686743E-01  6.6941472679355477E-02  4.6170953877637324E-07
  3.4823798295739194E-01  6.6757554550103071E-02  4.5735184101143088E-07
  3.5170737385306161E-01  6.6590137193576676E-02  4.5303713169766076E-07
  3.5521132925282373E-01  6.6414336457951875E-02  4.4876519380842057E-07
  3.5875019351249665E-01  6.6241012812686031E-02  4.4453584794705007E-07
  3.6232431441861351E-01  6.6067546313613418E-02  4.4034894219755293E-07
  3.6593404322260092E-01  6.5890837616770004E-02  4.3620434418731158E-07
  3.6957973467529776E-01  6.5725426869073025E-02  4.3210193563936650E-07
  3.7326174706181958E-01  6.5556243659305402E-02  4.2804160906127561E-07
  3.7698044223677002E-01  6.5398512509787357E-02  4.2402326547360057E-07
  3.8073618565980111E-01  6.5235526197809438E-02  4.2004681176835145E-07
  3.8452934643153047E-01  6.5072579431855723E-02  4.1611215825744315E-07
  3.8836029732981486E-01  6.4911899445772719E-02  4.1221921643079374E-07
  3.9222941484638574E-01  6.4754431630715356E-02  4.0836789677725537E-07
  3.9613707922384800E-01  6.4579124374545327E-02  4.0455810706273738E-07
  4.0008367449305088E-01  6.4403827063940849E-02  4.0078975111259400E-07
  4.0406958851082814E-01  6.4228296029080034E-02  3.9706272800275538E-07
  4.0809521299811469E-01  6.4040024901756976E-02  3.9337693154082871E-07
  4.1216094357844385E-01  6.3835126132465683E-02  3.8973225275018309E-07
  4.1626717981682892E-01  6.3668577019912145E-02  3.8612859518307158E-07
  4.2041432525902894E-01  6.3498778782657916E-02  3.8256591260328996E-07
  4.2460278747120889E-01  6.3331878863610344E-02  3.7904426982666462E-07
  4.2883297807999388E-01  6.3195317663166189E-02  3.7556391723979966E-07
  4.3310531281292231E-01  6.3035066545684415E-02  3.7212536215168814E-07
  4.3742021153930039E-01  6.2884409750519274E-02  3.6872941917594151E-07
  4.4177809831146803E-01  6.2716743021061463E-02  3.6537722803161440E-07
  4.4617940140647161E-01  6.2557147710734035E-02  3.6207023719889850E-07
  4.5062455336815305E-01  6.2379916409343560E-02  3.5881016098904233E-07
  4.5511399104965944E-01  6.2212026873607058E-02  3.5559892219095563E-07
  4.5964815565637573E-01  6.2040541124819333E-02  3.5243859198633765E-07
  4.6422749278928344E-01  6.1871329819185319E-02  3.4933133496872706E-07
  4.6885245248875357E-01  6.1706508742345824E-02  3.4627935721283667E-07
  4.7352348927877513E-01  6.1547482762565983E-02  3.4328485327865215E-07
  4.7824106221162405E-01  6.1375361284020422E-02  3.4034994888528350E-07
  4.8300563491297532E-01  6.1221836699160342E-02  3.3747663860581835E-07
  4.8781767562746936E-01  6.1059561621306949E-02  3.3466672426305624E-07
  4.9267765726472756E-01  6.0897901586215906E-02  3.3192176961776075E-07
  4.9758605744582834E-01  6.0737643595943275E-02  3.2924307684083991E-07
  5.0254335855024568E-01  6.0582185233569695E-02  3.2663168739565585E-07
  5.0755004776325685E-01  6.0417049568365681E-02  3.2408840488543982E-07
  5.1260661712382005E-01  6.0262641179718759E-02  3.2161383248020040E-07
  5.1771356357292986E-01  6.0111950546320556E-02  3.1920841599202951E-07
  5.2287138900245633E-01  5.9939184220800586E-02  3.1687248663128658E-07
  5.2808060030446824E-01  5.9788983013702141E-02  3.1460631257088316E-07
  5.3334170942104697E-01  5.9629821510116379E-02  3.1241018210471233E-07
  5.3865523339460120E-01  5.9475933786366911E-02  3.1028453537189684E-07
  5.4402169441867854E-01  5.9324724237209914E-02  3.0823014598542712E-07
  5.4944161988928408E-01  5.9168013198590406E-02  3.0624833464659708E-07
  5.5491554245671149E-01  5.9017333907313521E-02  3.0434117457416780E-07
  5.6044400007789119E-01  5.8872435275755815E-02  3.0251164822108573E-07
  5.6602753606925649E-01  5.8711574253260811E-02  3.0076372619023954E-07
  5.7166669916013990E-01  5.8558173429180058E-02  2.9910235916432572E-07
  5.7736204354670095E-01  5.8396982749100317E-02  2.9753339685311780E-07
  5.8311412894639003E-01  5.8230555948542297E-02  2.9606346241699684E-07
  5.8892352065295328E-01  5.8081328619595765E-02  2.9469981451394320E-07
  5.9479078959199105E-01  5.7930107793950011E-02  2.9345021598609152E-07
  6.0071651237706480E-01  5.7766014000259033E-02  2.9232280244891191E-07
  6.0670127136636365E-01  5.7626240878241093E-02  2.9132594494339566E-07
  6.1274565471993725E-01  5.7479689154933788E-02  2.9046809582668516E-07
  6.1885025645749880E-01  5.7338999940697494E-02  2.8975760875249420E-07
  6.2501567651680145E-01  5.7201955962770765E-02  2.8920256004079807E-07
  6.3124252081259891E-01  5.7067249874365657E-02  2.8881060939520492E-07
  6.3753140129619301E-01  5.6933421753452305E-02  2.8858891699445327E-07
  6.4388293601557289E-01  5.6809930977533958E-02  2.8854413532247310E-07
  6.5029774917615446E-01  5.6687727795491548E-02  2.8868247642210579E-07
  6.5677647120212690E-01  5.6547181379791422E-02  2.8900983863847211E-07
  6.6331973879840644E-01  5.6428284167494354E-02  2.8953196806260232E-07
  6.6992819501320966E-01  5.6298871047768165E-02  2.9025462515051256E-07
  6.7660248930125011E-01  5.6172766301314986E-02  2.9118373348627741E-07
  6.8334327758756563E-01  5.6043256675877923E-02  2.9232548137700260E-07
  6.9015122233197790E-01  5.5911733780095466E-02  2.9368636141498242E-07
  6.9702699259419776E-01  5.5770555163979857E-02  2.9527315341488079E-07
  7.0397126409957866E-01  5.5649497769593652E-02  2.9709286275024231E-07
  7.1098471930552398E-01  5.5514291802433932E-02  2.9915261779816396E-07
  7.1806804746855402E-01  5.5398466366049018E-02  3.0145956689703221E-07
  7.2522194471204782E-01  5.5272524629913500E-02  3.0402080693266444E-07
  7.3244711409465346E-01  5.5142008088329419E-02  3.0684336287305669E-07
  7.3974426567938012E-01  5.5034505272930925E-02  3.0993422238851049E-07
  7.4711411660338434E-01  5.4918964568984749E-02  3.1330041507179563E-07
  7.5455739114844600E-01  5.4816912431431691E-02  3.1694911543604495E-07
  7.6207482081214517E-01  5.4709270838490254E-02  3.2088774330165858E-07
  7.6966714437975625E-01  5.4594103997055748E-02  3.2512402104063303E-07
  7.7733510799685035E-01  5.4488260841654972E-02  3.2966594466749724E-07
  7.8507946524262029E-01  5.4371914222607627E-02  3.3452164320651170E-07
  7.9290097720394914E-01  5.4253501013094931E-02  3.3969912253752266E-07
  8.0080041255019585E-01  5.4130578593233676E-02  3.4520588379757702E-07
  8.0877854760874235E-01  5.4017089142764076E-02  3.5104845943685907E-07
  8.1683616644129320E-01  5.3898472345107133E-02  3.5723193724955821E-07
  8.2497406092091952E-01  5.3774120410391306E-02  3.6375954251988156E-07
  8.3319303080989027E-01  5.3657066024780001E-02  3.7063233327595346E-07
  8.4149388383826673E-01  5.3545656285652138E-02  3.7784902902141366E-07
  8.4987743578328068E-01  5.3417473342515467E-02  3.8540594928245831E-07
  8.5834451054951144E-01  5.3308450097693694E-02  3.9329702175641091E-07
  8.6689594024985295E-01  5.3190752956800549E-02  4.0151383437367265E-07
  8.7553256528728851E-01  5.3070743426324868E-02  4.1004568971218215E-07
  8.8425523443748766E-01  5.2935398586908690E-02  4.1887966712757461E-07
  8.9306480493221840E-01  5.2820069400215539E-02  4.2800074696177269E-07
  9.0196214254358975E-01  5.2696951087114446E-02  4.3739197550835666E-07
  9.1094812166914174E-01  5.2580589950897177E-02  4.4703464661351318E-07
  9.2002362541777616E-01  5.2456625675529139E-02  4.5690851438556976E-07
  9.2918954569654133E-01  5.2338955555560743E-02  4.6699199305995623E-07
  9.3844678329829223E-01  5.2217879945439152E-02  4.7726229099081136E-07
  9.4779624799021323E-01  5.2094946952236966E-02  4.8769543777680457E-07
  9.5723885860322355E-01  5.1976580030929261E-02  4.9826619495055566E-07
  9.6677554312228686E-01  5.1846481830510105E-02  5.0894788111230551E-07
  9.7640723877759772E-01  5.1733588481286938E-02  5.1971215332236942E-07
  9.8613489213669481E-01  5.1609173615297356E-02  5.3052882961970541E-07
  9.9595945919749185E-01  5.1481655430404283E-02  5.4136582440780214E-07
  1.0058819054822175E+00  5.1356057819583571E-02  5.5218923775205748E-07
  1.0159032061323130E+00  5.1228188524156018E-02  5.6296364368086561E-07
  1.0260243460042628E+00  5.1094471771152512E-02  5.7365263261280147E-07
