 #p(MeV) \t \delta f_\\nu \t \delta f_\\nubar
  1.0033192526857874E-01  9.9232423118210997E-02  2.1175582083547174E-06
  1.0133150223923455E-01  9.8985283141822464E-02  2.0986602964076743E-06
  1.0234103769635999E-01  9.8752173135115209E-02  2.0799109269137861E-06
  1.0336063085337814E-01  9.8541324733873586E-02  2.0613095956412715E-06
  1.0439038191214550E-01  9.8365128094312235E-02  2.0428558870827396E-06
  1.0543039207279996E-01  9.8147191515430707E-02  2.0245494503640123E-06
  1.0648076354370591E-01  9.7920255495963837E-02  2.0063899761849611E-06
  1.0754159955149915E-01  9.7643071703956308E-02  1.9883771897862825E-06
  1.0861300435123174E-01  9.7403301211458390E-02  1.9705108537303769E-06
  1.0969508323661745E-01  9.7160088526892632E-02  1.9527907295673536E-06
  1.1078794255037999E-01  9.6963278591577856E-02  1.9352164926618519E-06
  1.1189168969470374E-01  9.6749286596322856E-02  1.9177876428403473E-06
  1.1300643314178889E-01  9.6525584421761498E-02  1.9005034495946516E-06
  1.1413228244451190E-01  9.6288908701666912E-02  1.8833629427538799E-06
  1.1526934824719155E-01  9.6046844580290378E-02  1.8663649367487535E-06
  1.1641774229646314E-01  9.5794381820877531E-02  1.8495080708474748E-06
  1.1757757745226007E-01  9.5580806999228093E-02  1.8327908519763010E-06
  1.1874896769890550E-01  9.5347330196002986E-02  1.8162116919566805E-06
  1.1993202815631454E-01  9.5119257069368759E-02  1.7997689438887980E-06
  1.2112687509130736E-01  9.4905497530189412E-02  1.7834609283528147E-06
  1.2233362592903589E-01  9.4704207094580800E-02  1.7672859244280055E-06
  1.2355239926452356E-01  9.4471972266565812E-02  1.7512421651547428E-06
  1.2478331487432058E-01  9.4286120798980522E-02  1.7353278792313966E-06
  1.2602649372827532E-01  9.4069326925801389E-02  1.7195413661250972E-06
  1.2728205800142223E-01  9.3837424494373101E-02  1.7038810670306439E-06
  1.2855013108598948E-01  9.3604245853506976E-02  1.6883456048950955E-06
  1.2983083760352485E-01  9.3397700669747147E-02  1.6729337897291115E-06
  1.3112430341714335E-01  9.3171228880511450E-02  1.6576446003656180E-06
  1.3243065564389669E-01  9.2942041230167985E-02  1.6424771553689730E-06
  1.3375002266726566E-01  9.2731756441045810E-02  1.6274306828946995E-06
  1.3508253414977739E-01  9.2517699689862412E-02  1.6125044905627990E-06
  1.3642832104574787E-01  9.2298042342469286E-02  1.5976979350366206E-06
  1.3778751561415178E-01  9.2077479447155469E-02  1.5830104194093049E-06
  1.3916025143162061E-01  9.1852828719207705E-02  1.5684414141138626E-06
  1.4054666340556959E-01  9.1627582905245003E-02  1.5539904621992012E-06
  1.4194688778745651E-01  9.1394155100008340E-02  1.5396571534841953E-06
  1.4336106218617145E-01  9.1214584247898828E-02  1.5254410808388358E-06
  1.4478932558156074E-01  9.0988892411329361E-02  1.5113417998300986E-06
  1.4623181833808555E-01  9.0803521599967491E-02  1.4973588050723980E-06
  1.4768868221861600E-01  9.0600125452325195E-02  1.4834915234923158E-06
  1.4916006039836333E-01  9.0372770582125742E-02  1.4697393192069629E-06
  1.5064609747895072E-01  9.0141384488551607E-02  1.4561015039246736E-06
  1.5214693950262390E-01  8.9898001815269399E-02  1.4425773488336360E-06
  1.5366273396660407E-01  8.9678973853432070E-02  1.4291660972670955E-06
  1.5519362983758286E-01  8.9460239152071325E-02  1.4158669734525447E-06
  1.5673977756636276E-01  8.9245083613466239E-02  1.4026791919158901E-06
  1.5830132910264247E-01  8.9033395676644408E-02  1.3896019824522262E-06
  1.5987843790995002E-01  8.8847412554792282E-02  1.3766346302598114E-06
  1.6147125898072495E-01  8.8648288253308685E-02  1.3637765153572338E-06
  1.6307994885154994E-01  8.8462143640842331E-02  1.3510271358875676E-06
  1.6470466561853478E-01  8.8249403282947864E-02  1.3383861099550583E-06
  1.6634556895285374E-01  8.8034195746357471E-02  1.3258531609474445E-06
  1.6800282011643700E-01  8.7815257844063410E-02  1.3134280947453202E-06
  1.6967658197781946E-01  8.7600166105868793E-02  1.3011107757273643E-06
  1.7136701902814611E-01  8.7386540440188065E-02  1.2889011055569300E-06
  1.7307429739733846E-01  8.7168334281300733E-02  1.2767990070544048E-06
  1.7479858487042049E-01  8.6967813064958099E-02  1.2648044095882540E-06
  1.7654005090400818E-01  8.6763689567262381E-02  1.2529172194121311E-06
  1.7829886664296332E-01  8.6552523325598818E-02  1.2411372657589862E-06
  1.8007520493721266E-01  8.6342112703642435E-02  1.2294642350636213E-06
  1.8186924035873489E-01  8.6141686379901994E-02  1.2178976173395827E-06
  1.8368114921871756E-01  8.5953178178924242E-02  1.2064366829206112E-06
  1.8551110958488340E-01  8.5769980272630386E-02  1.1950804923489744E-06
  1.8735930129899106E-01  8.5576810426425592E-02  1.1838279294194687E-06
  1.8922590599450839E-01  8.5352653568918468E-02  1.1726777437401355E-06
  1.9111110711446361E-01  8.5115563860861457E-02  1.1616285923947794E-06
  1.9301508992947275E-01  8.4865357407964026E-02  1.1506790753820475E-06
  1.9493804155594743E-01  8.4647081738964638E-02  1.1398277635133402E-06
  1.9688015097448455E-01  8.4435595085395374E-02  1.1290732223574981E-06
  1.9884160904843784E-01  8.4248668469760715E-02  1.1184140472877079E-06
  2.0082260854267556E-01  8.4096083188689094E-02  1.1078489140637295E-06
  2.0282334414252506E-01  8.3915934070956932E-02  1.0973766294896881E-06
  2.0484401247290490E-01  8.3723068635888631E-02  1.0869961644650257E-06
  2.0688481211764939E-01  8.3517003511283758E-02  1.0767066602942705E-06
  2.0894594363902375E-01  8.3316967598045175E-02  1.0665074110231610E-06
  2.1102760959743549E-01  8.3098949302510258E-02  1.0563978318506477E-06
  2.1313001457134068E-01  8.2899041992345615E-02  1.0463774245639690E-06
  2.1525336517734917E-01  8.2677034114006648E-02  1.0364457470049492E-06
  2.1739787009053085E-01  8.2500461489180041E-02  1.0266023892694708E-06
  2.1956374006492244E-01  8.2294218652488441E-02  1.0168469560769140E-06
  2.2175118795424023E-01  8.2099585955024326E-02  1.0071790517221970E-06
  2.2396042873279870E-01  8.1896773790347863E-02  9.9759825604799057E-07
  2.2619167951663671E-01  8.1702102594456066E-02  9.8810408965236045E-07
  2.2844515958485581E-01  8.1506930667083657E-02  9.7869598774239007E-07
  2.3072109040116909E-01  8.1304113662080887E-02  9.6937329803562631E-07
  2.3301969563566693E-01  8.1097750725532089E-02  9.6013530342005992E-07
  2.3534120118679766E-01  8.0899421449911954E-02  9.5098125795946150E-07
  2.3768583520356815E-01  8.0697755837969079E-02  9.4191042196470736E-07
  2.4005382810796605E-01  8.0506674445652918E-02  9.3292208695384620E-07
  2.4244541261760408E-01  8.0307578051305561E-02  9.2401558833340399E-07
  2.4486082376859075E-01  8.0106171271392385E-02  9.1519030822108368E-07
  2.4730029893862962E-01  7.9916756607222167E-02  9.0644567257812211E-07
  2.4976407787034668E-01  7.9736123950114049E-02  8.9778114717563187E-07
  2.5225240269485266E-01  7.9556641769750608E-02  8.8919624052066248E-07
  2.5476551795553748E-01  7.9365566703816448E-02  8.8069051610366455E-07
  2.5730367063210441E-01  7.9173243655778672E-02  8.7226359629073514E-07
  2.5986711016484110E-01  7.8965155079313079E-02  8.6391514202320339E-07
  2.6245608847913426E-01  7.8757401278519865E-02  8.5564480934364776E-07
  2.6507086001022845E-01  7.8546684574855544E-02  8.4745219722931232E-07
  2.6771168172822979E-01  7.8361970746584284E-02  8.3933680516166942E-07
  2.7037881316336099E-01  7.8166094787002580E-02  8.3129801112356545E-07
  2.7307251643146707E-01  7.7995843036474402E-02  8.2333507018240343E-07
  2.7579305625977424E-01  7.7805163191695823E-02  8.1544712781018365E-07
  2.7854070001290759E-01  7.7617208324943038E-02  8.0763324040822635E-07
  2.8131571771916530E-01  7.7457098047783848E-02  7.9989239669365625E-07
  2.8411838209705753E-01  7.7279946148247250E-02  7.9222353357505494E-07
  2.8694896858210672E-01  7.7082703477706821E-02  7.8462554342768788E-07
  2.8980775535391723E-01  7.6885572556161574E-02  7.7709728564395578E-07
  2.9269502336351405E-01  7.6686654155368045E-02  7.6963761797190994E-07
  2.9561105636095275E-01  7.6484110558271756E-02  7.6224544901649871E-07
  2.9855614092320593E-01  7.6271198428066886E-02  7.5491979927243703E-07
  3.0153056648232718E-01  7.6091597251078349E-02  7.4765985171427388E-07
  3.0453462535389475E-01  7.5909620216402338E-02  7.4046497775692151E-07
  3.0756861276573971E-01  7.5727619389540229E-02  7.3333473725053238E-07
  3.1063282688695970E-01  7.5541038713020633E-02  7.2626885881898741E-07
  3.1372756885722219E-01  7.5349028111845046E-02  7.1926720978920420E-07
  3.1685314281635885E-01  7.5154567583465587E-02  7.1232976388788377E-07
  3.2000985593425529E-01  7.4951004790267145E-02  7.0545657323222337E-07
  3.2319801844103957E-01  7.4772503577854199E-02  6.9864775012758187E-07
  3.2641794365756910E-01  7.4587167680278552E-02  6.9190345368541951E-07
  3.2966994802622340E-01  7.4420873091770992E-02  6.8522386869162802E-07
  3.3295435114200317E-01  7.4270153175589132E-02  6.7860917016515826E-07
  3.3627147578393829E-01  7.4102352338070415E-02  6.7205947726686795E-07
  3.3962164794680932E-01  7.3918774075733468E-02  6.6557480765699509E-07
  3.4300519687318581E-01  7.3722700764650942E-02  6.5915504634889113E-07
  3.4642245508578257E-01  7.3524061945035094E-02  6.5279993413025609E-07
  3.4987375842013846E-01  7.3330073947553961E-02  6.4650907369189861E-07
  3.5335944605762137E-01  7.3133024865419158E-02  6.4028194773936763E-07
  3.5687986055876225E-01  7.2952542579239207E-02  6.3411794239035213E-07
  3.6043534789691978E-01  7.2770383460857582E-02  6.2801637021317580E-07
  3.6402625749228146E-01  7.2590447475088637E-02  6.2197648639056909E-07
  3.6765294224620454E-01  7.2411772271699745E-02  6.1599749516669495E-07
  3.7131575857589627E-01  7.2226740314534590E-02  6.1007855334333561E-07
  3.7501506644944177E-01  7.2051189202338772E-02  6.0421877885846663E-07
  3.7875122942118128E-01  7.1877408908736201E-02  5.9841726862292510E-07
  3.8252461466743803E-01  7.1709708361606977E-02  5.9267312441925863E-07
  3.8633559302260267E-01  7.1527467568194586E-02  5.8698547908073347E-07
  3.9018453901557831E-01  7.1340282341070649E-02  5.8135351634025038E-07
  3.9407183090658793E-01  7.1171497327215352E-02  5.7577648173147000E-07
  3.9799785072434729E-01  7.0989690808648892E-02  5.7025368458262567E-07
  4.0196298430361022E-01  7.0788868209653605E-02  5.6478449355228131E-07
  4.0596762132308739E-01  7.0604853435785514E-02  5.5936832875248701E-07
  4.1001215534374136E-01  7.0434742670262285E-02  5.5400465456815990E-07
  4.1409698384746468E-01  7.0258616690742307E-02  5.4869297801087789E-07
  4.1822250827614388E-01  7.0084698343845078E-02  5.4343285065036185E-07
  4.2238913407111067E-01  6.9897308009157402E-02  5.3822386845014779E-07
  4.2659727071298720E-01  6.9735152703081213E-02  5.3306566512904546E-07
  4.3084733176192874E-01  6.9576492182944150E-02  5.2795789762660058E-07
  4.3513973489826718E-01  6.9395948670373978E-02  5.2290022711480799E-07
  4.3947490196355821E-01  6.9226024494033117E-02  5.1789230129829829E-07
  4.4385325900203854E-01  6.9045143549035168E-02  5.1293374147631817E-07
  4.4827523630249716E-01  6.8856408783311243E-02  5.0802413607111004E-07
  4.5274126844056073E-01  6.8663494638939185E-02  5.0316304005070750E-07
  4.5725179432140300E-01  6.8489832996495748E-02  4.9834997845855165E-07
  4.6180725722287919E-01  6.8309020582200439E-02  4.9358445196482299E-07
  4.6640810483908934E-01  6.8126708501086014E-02  4.8886594138461543E-07
  4.7105478932437522E-01  6.7966453211952146E-02  4.8419391136047911E-07
  4.7574776733775742E-01  6.7806718864530699E-02  4.7956781660784796E-07
  4.8048750008781421E-01  6.7641095041626312E-02  4.7498711285739332E-07
  4.8527445337800656E-01  6.7461810543143028E-02  4.7045127276626411E-07
  4.9010909765245592E-01  6.7278283976880016E-02  4.6595980411024976E-07
  4.9499190804217857E-01  6.7109344949280808E-02  4.6151226495741030E-07
  4.9992336441177831E-01  6.6941468663434811E-02  4.5710827268951777E-07
  5.0490395140660649E-01  6.6757550529603957E-02  4.5274750577093792E-07
  5.0993415850039170E-01  6.6590133168622140E-02  4.4842969922188438E-07
  5.1501448004334327E-01  6.6414332428436473E-02  4.4415463606869861E-07
  5.2014541531073211E-01  6.6241008778602284E-02  4.3992213690050201E-07
  5.2532746855196111E-01  6.6067542274930460E-02  4.3573204978418656E-07
  5.3056114904011875E-01  6.5890833573429286E-02  4.3158424227128129E-07
  5.3584697112202861E-01  6.5725422821149862E-02  4.2747859567923138E-07
  5.4118545426879772E-01  6.5556239606734845E-02  4.2341500168474476E-07
  5.4657712312686968E-01  6.5398508452642987E-02  4.1939336012447881E-07
  5.5202250756958227E-01  6.5235522136010290E-02  4.1541357646220104E-07
  5.5752214274924328E-01  6.5072575365367716E-02  4.1147555948997819E-07
  5.6307656914972337E-01  6.4911895374579962E-02  4.0757921925463422E-07
  5.6868633263957280E-01  6.4754427554814073E-02  4.0372446496876430E-07
  5.7435198452566505E-01  6.4579120293728795E-02  3.9991120322369543E-07
  5.8007408160738105E-01  6.4403822978170738E-02  3.9613933666570847E-07
  5.8585318623132709E-01  6.4228291938312435E-02  3.9240876318386159E-07
  5.9168986634660004E-01  6.4040020805832626E-02  3.8871937539553968E-07
  5.9758469556060356E-01  6.3835122031183883E-02  3.8507106314647485E-07
  6.0353825319542165E-01  6.3668572913591182E-02  3.8146372900970224E-07
  6.0955112434474967E-01  6.3498774671221378E-02  3.7789732612997763E-07
  6.1562389993139688E-01  6.3331874747042813E-02  3.7437191902605358E-07
  6.2175717676536002E-01  6.3195313541709541E-02  3.7088775803676867E-07
  6.2795155760247623E-01  6.3035062419069685E-02  3.6744535057811671E-07
  6.3420765120365641E-01  6.2884405618793798E-02  3.6404551142077002E-07
  6.4052607239471659E-01  6.2716738884019768E-02  3.6068938043090462E-07
  6.4690744212679807E-01  6.2557143568408094E-02  3.5737840628130555E-07
  6.5335238753739222E-01  6.2379912261522244E-02  3.5411430365378077E-07
  6.5986154201197356E-01  6.2212022720335741E-02  3.5089899588008630E-07
  6.6643554524624782E-01  6.2040536966019896E-02  3.4773455471677755E-07
  6.7307504330901646E-01  6.1871325654836988E-02  3.4462314533007434E-07
  6.7978068870567188E-01  6.1706504572447946E-02  3.4156697424660013E-07
  6.8655314044232252E-01  6.1547478587131110E-02  3.3856823614245263E-07
  6.9339306409055856E-01  6.1375357102880716E-02  3.3562905652768767E-07
  7.0030113185285858E-01  6.1221832512449774E-02  3.3275142951840413E-07
  7.0727802262865525E-01  6.1059557428898958E-02  3.2993715632233490E-07
  7.1432442208105351E-01  6.0897897388071810E-02  3.2718780002109209E-07
  7.2144102270421384E-01  6.0737639392031084E-02  3.2450466210030135E-07
  7.2862852389140886E-01  6.0582181023889556E-02  3.2188878328368643E-07
  7.3588763200375829E-01  6.0417045352777345E-02  3.1934096621904167E-07
  7.4321906043964570E-01  6.0262636958277591E-02  3.1686181282250224E-07
  7.5062352970482904E-01  6.0111946319012927E-02  3.1445176754546144E-07
  7.5810176748325098E-01  5.9939179987363693E-02  3.1211116022902138E-07
  7.6565450870855134E-01  5.9788978774301241E-02  3.0984025767717061E-07
  7.7328249563629248E-01  5.9629817264611161E-02  3.0763934684144844E-07
  7.8098647791690878E-01  5.9475929534754460E-02  3.0550886655415315E-07
  7.8876721266937744E-01  5.9324719979460067E-02  3.0344958914856161E-07
  7.9662546455562533E-01  5.9168008934593050E-02  3.0146283405204886E-07
  8.0456200585567661E-01  5.9017329637068426E-02  2.9955067317646736E-07
  8.1257761654355232E-01  5.8872430999259914E-02  2.9771608759944478E-07
  8.2067308436392017E-01  5.8711569970297743E-02  2.9596304650591652E-07
  8.2884920490951186E-01  5.8558169139760266E-02  2.9429649924220186E-07
  8.3710678169931296E-01  5.8396978453084294E-02  2.9272229438244279E-07
  8.4544662625752875E-01  5.8230551645814095E-02  2.9124705406298455E-07
  8.5386955819333488E-01  5.8081324310258087E-02  2.8987803591989707E-07
  8.6237640528143067E-01  5.7930103477916786E-02  2.8862300169554543E-07
  8.7096800354338710E-01  5.7766009677335514E-02  2.8749008521112458E-07
  8.7964519732980673E-01  5.7626236548594424E-02  2.8648765469910535E-07
  8.8840883940330506E-01  5.7479684818423755E-02  2.8562415904725781E-07
  8.9725979102231779E-01  5.7338995597303440E-02  2.8490794814481801E-07
  9.0619892202573959E-01  5.7201951612447142E-02  2.8434709448717896E-07
  9.1522711091840969E-01  5.7067245517052313E-02  2.8394925395121947E-07
  9.2434524495745019E-01  5.6933417389067952E-02  2.8372158283658185E-07
  9.3355422023945867E-01  5.6809926606089495E-02  2.8367072966905772E-07
  9.4285494178857543E-01  5.6687723416904284E-02  2.8380290250531437E-07
  9.5224832364542689E-01  5.6547176993780167E-02  2.8412399571709568E-07
  9.6173528895695215E-01  5.6428279774170843E-02  2.8463975140121397E-07
  9.7131677006712713E-01  5.6298866646920936E-02  2.8535592598642254E-07
  9.8099370860859147E-01  5.6172761892865748E-02  2.8627843894452389E-07
  9.9076705559519085E-01  5.6043252259678177E-02  2.8741347414222483E-07
  1.0006377715154360E+00  5.5911729356004844E-02  2.8876751905106943E-07
  1.0106068264268975E+00  5.5770550731776364E-02  2.9034734739809459E-07
  1.0206752000515407E+00  5.5649493329344948E-02  2.9215995743633192E-07
  1.0308438818720080E+00  5.5514287353859999E-02  2.9421246964189326E-07
  1.0411138712288588E+00  5.5398461909196194E-02  2.9651202408071158E-07
  1.0514861774187862E+00  5.5272520164524469E-02  2.9906570917290959E-07
  1.0619618197938052E+00  5.5142003614195072E-02  3.0188054101782841E-07
  1.0725418278614269E+00  5.5034500790110914E-02  3.0496349788530754E-07
  1.0832272413858404E+00  5.4918960077216944E-02  3.0832159973945878E-07
  1.0940191104900949E+00  5.4816907930662982E-02  3.1196201135403101E-07
  1.1049184957592986E+00  5.4709266328463825E-02  3.1589214181340340E-07
  1.1159264683448546E+00  5.4594099477481221E-02  3.2011969895056017E-07
  1.1270441100697282E+00  5.4488256312396982E-02  3.2465266032917691E-07
  1.1382725135347576E+00  5.4371909683308656E-02  3.2949913389186302E-07
  1.1496127822260456E+00  5.4253496463461878E-02  3.3466710286090945E-07
  1.1610660306233893E+00  5.4130574032927294E-02  3.4016404466676925E-07
  1.1726333843098151E+00  5.4017084571563935E-02  3.4599646706284894E-07
  1.1843159800822041E+00  5.3898467762620354E-02  3.5216943225139161E-07
  1.1961149660629953E+00  5.3774115816194304E-02  3.5868613957084114E-07
  1.2080315018130343E+00  5.3657061418558825E-02  3.6554762126143623E-07
  1.2200667584455240E+00  5.3545651667052906E-02  3.7275257089072392E-07
  1.2322219187411141E+00  5.3417468710926078E-02  3.8029728155417408E-07
  1.2444981772641488E+00  5.3308445452849615E-02  3.8817565399432809E-07
  1.2568967404800588E+00  5.3190748298122731E-02  3.9637924862551999E-07
  1.2694188268739257E+00  5.3070738753273033E-02  4.0489733897093821E-07
  1.2820656670702375E+00  5.2935393898774420E-02  4.1371697226323693E-07
  1.2948385039538259E+00  5.2820064696628213E-02  4.2282309244911473E-07
  1.3077385927920089E+00  5.2696946367372821E-02  4.3219870479540849E-07
  1.3207672013579610E+00  5.2580585214410419E-02  4.4182505811925086E-07
  1.3339256100553016E+00  5.2456620921510044E-02  4.5168185850799885E-07
  1.3472151120439253E+00  5.2338950783322839E-02  4.6174746967207590E-07
  1.3606370133670951E+00  5.2217875154140843E-02  4.7199904687155791E-07
  1.3741926330797933E+00  5.2094942141003277E-02  4.8241256437705711E-07
  1.3878833033783466E+00  5.1976575198899054E-02  4.9296272663797259E-07
  1.4017103697313653E+00  5.1846476976591567E-02  5.0362279340290289E-07
  1.4156751910119529E+00  5.1733583604645757E-02  5.1436436172867237E-07
  1.4297791396312591E+00  5.1609168714727122E-02  5.2515718898203252E-07
  1.4440236016733636E+00  5.1481650504733648E-02  5.3596912707075453E-07
  1.4584099770314782E+00  5.1356052867632625E-02  5.4676621028451988E-07
  1.4729396795455372E+00  5.1228183544630233E-02  5.5751294219844214E-07
  1.4876141371411398E+00  5.1094466762647374E-02  5.6817283692051120E-07
