 #p(MeV) \t \delta f_\\nu \t \delta f_\\nubar
  6.6659643254782033E-03  9.9232432161819539E-02  2.1288104902732681E-06
  6.7323753348266695E-03  9.8985292191844390E-02  2.1099135838060676E-06
  6.7994479772033522E-03  9.8752182191245499E-02  2.0911652307938345E-06
  6.8671888442602830E-03  9.8541333795619288E-02  2.0725649260699555E-06
  6.9356045933201332E-03  9.8365137160898619E-02  2.0541122531210061E-06
  7.0047019480305043E-03  9.8147200587808139E-02  2.0358068600875018E-06
  7.0744876990246784E-03  9.7920264574343246E-02  2.0176484368068636E-06
  7.1449687045889868E-03  9.7643080789476949E-02  1.9996367078717521E-06
  7.2161518913368269E-03  9.7403310303282670E-02  1.9817714354362839E-06
  7.2880442548893601E-03  9.7160097625105232E-02  1.9640523810446407E-06
  7.3606528605630441E-03  9.6963287695138262E-02  1.9464792208473818E-06
  7.4339848440639605E-03  9.6749295705627042E-02  1.9290514558872387E-06
  7.5080474121890966E-03  9.6525593537037976E-02  1.9117683567672243E-06
  7.5828478435346156E-03  9.6288917823216982E-02  1.8946289543201150E-06
  7.6583934892111424E-03  9.6046853708247587E-02  1.8776320639842321E-06
  7.7346917735662338E-03  9.5794390955488293E-02  1.8607763261336638E-06
  7.8117501949139904E-03  9.5580816139626532E-02  1.8440602488963534E-06
  7.8895763262719718E-03  9.5347339342652063E-02  1.8274822453248896E-06
  7.9681778161054609E-03  9.5119266222161117E-02  1.8110406697623501E-06
  8.0475623890791000E-03  9.4905506688817545E-02  1.7947338440098852E-06
  8.1277378468160646E-03  9.4704216258778687E-02  1.7785600482445809E-06
  8.2087120686647631E-03  9.4471981437050878E-02  1.7625175163830008E-06
  8.2904930124731921E-03  9.4286129974721605E-02  1.7466044773470980E-06
  8.3730887153710253E-03  9.4069336107513543E-02  1.7308192301324206E-06
  8.4565072945594344E-03  9.3837433682416732E-02  1.7151602153764470E-06
  8.5407569481088571E-03  9.3604255047926535E-02  1.6996260555377422E-06
  8.6258459557646463E-03  9.3397709869956158E-02  1.6842155601107466E-06
  8.7117826797607784E-03  9.3171238086975652E-02  1.6689277072549790E-06
  8.7985755656416805E-03  9.2942050442964136E-02  1.6537616146429770E-06
  8.8862331430921981E-03  9.2731765659759449E-02  1.6387165093608459E-06
  8.9747640267758885E-03  9.2517708914592128E-02  1.6237916978048222E-06
  9.0641769171816173E-03  9.2298051573354425E-02  1.6089865352639437E-06
  9.1544806014786199E-03  9.2077488684225925E-02  1.5943004234295485E-06
  9.2456839543800830E-03  9.1852837962565659E-02  1.5797328314226725E-06
  9.3377959390152868E-03  9.1627592154912424E-02  1.5652833013119164E-06
  9.4308256078105106E-03  9.1394164356180613E-02  1.5509514225160809E-06
  9.5247821033786310E-03  9.1214593509363506E-02  1.5367367877077487E-06
  9.6196746594176506E-03  9.0988901679139839E-02  1.5226389522004674E-06
  9.7155126016181519E-03  9.0803530873219129E-02  1.5086574103528910E-06
  9.8123053485797730E-03  9.0600134731431400E-02  1.4947915889879189E-06
  9.9100624127368420E-03  9.0372779867639724E-02  1.4810408524111009E-06
  1.0008793401293240E-02  9.0141393780572052E-02  1.4674045128311326E-06
  1.0108508017166529E-02  8.9898011114077289E-02  1.4538818422041002E-06
  1.0209216059941561E-02  8.9678983158485465E-02  1.4404720848555456E-06
  1.0310927426833493E-02  8.9460248463375691E-02  1.4271744661048176E-06
  1.0413652113660507E-02  8.9245092930951619E-02  1.4139882015311229E-06
  1.0517400215826110E-02  8.9033405000245106E-02  1.4009125218981630E-06
  1.0622181929311298E-02  8.8847421883938793E-02  1.3879467131806510E-06
  1.0728007551676595E-02  8.8648297588311040E-02  1.3750901561162473E-06
  1.0834887483074021E-02  8.8462152981422446E-02  1.3623423497406406E-06
  1.0942832227269208E-02  8.8249412629723106E-02  1.3497029132342676E-06
  1.1051852392673667E-02  8.8034205099401353E-02  1.3371715710940602E-06
  1.1161958693387335E-02  8.7815267203477501E-02  1.3247481301406402E-06
  1.1273161950251534E-02  8.7600175471583580E-02  1.3124324554297687E-06
  1.1385473091912374E-02  8.7386549812188449E-02  1.3002244490702823E-06
  1.1498903155894819E-02  8.7168343659710101E-02  1.2881240341631247E-06
  1.1613463289687381E-02  8.6967822449393314E-02  1.2761311402994984E-06
  1.1729164751837665E-02  8.6763698957823709E-02  1.2642456740140961E-06
  1.1846018913058833E-02  8.6552532722467115E-02  1.2524674647717906E-06
  1.1964037257347048E-02  8.6342122106817146E-02  1.2407961990280649E-06
  1.2083231383110096E-02  8.6141695789177741E-02  1.2292313665657404E-06
  1.2203613004307241E-02  8.5953187594047534E-02  1.2177722371584898E-06
  1.2325193951600403E-02  8.5769989693500012E-02  1.2064178704307059E-06
  1.2447986173516874E-02  8.5576819853281902E-02  1.1951671490303017E-06
  1.2572001737623519E-02  8.5352663002485549E-02  1.1840188214050717E-06
  1.2697252831712797E-02  8.5115573301445896E-02  1.1729715435935059E-06
  1.2823751765000476E-02  8.4865366855881391E-02  1.1620239146446988E-06
  1.2951510969335360E-02  8.4647091193501112E-02  1.1511745044515100E-06
  1.3080543000421063E-02  8.4435604546411247E-02  1.1404218776565183E-06
  1.3210860539049902E-02  8.4248677936707345E-02  1.1297646286802138E-06
  1.3342476392349135E-02  8.4096092660796623E-02  1.1192014325366338E-06
  1.3475403495039626E-02  8.3915943548864474E-02  1.1087310960058024E-06
  1.3609654910706957E-02  8.3723078119898625E-02  1.0983525908912933E-06
  1.3745243833085345E-02  8.3517013001708967E-02  1.0880650602357637E-06
  1.3882183587354196E-02  8.3316977094765557E-02  1.0778678005279545E-06
  1.4020487631447736E-02  8.3098958805953430E-02  1.0677602298735260E-06
  1.4160169557377535E-02  8.2899051502120694E-02  1.0577418530880581E-06
  1.4301243092568311E-02  8.2677043630640060E-02  1.0478122309422660E-06
  1.4443722101207037E-02  8.2500471011661955E-02  1.0379709563978556E-06
  1.4587620585605404E-02  8.2294228181523613E-02  1.0282176371759549E-06
  1.4732952687575957E-02  8.2099595490380928E-02  1.0185518808350665E-06
  1.4879732689821906E-02  8.1896783332244996E-02  1.0089732705716282E-06
  1.5027975017340737E-02  8.1702112142745198E-02  9.9948133001857179E-07
  1.5177694238841901E-02  8.1506940221815066E-02  9.9007549646574583E-07
  1.5328905068178513E-02  8.1304123223468111E-02  9.8075511830269339E-07
  1.5481622365793441E-02  8.1097760293694296E-02  9.7151947759755418E-07
  1.5635861140179678E-02  8.0899431024702470E-02  9.6236782641428070E-07
  1.5791636549355337E-02  8.0697765419498899E-02  9.5329942236307005E-07
  1.5948963902353373E-02  8.0506684033714249E-02  9.4431355415401943E-07
  1.6107858660726018E-02  8.0307587646109263E-02  9.3540955478741708E-07
  1.6268336440064333E-02  8.0106180873022459E-02  9.2658680447879494E-07
  1.6430413011532873E-02  7.9916766215430868E-02  9.1784472738960039E-07
  1.6594104303419548E-02  7.9736133564725281E-02  9.0918278696435923E-07
  1.6759426402701075E-02  7.9556651390761027E-02  9.0060048879161918E-07
  1.6926395556623872E-02  7.9365576331513366E-02  8.9209739353793619E-07
  1.7095028174300857E-02  7.9173253290208231E-02  8.8367312138640967E-07
  1.7265340828323997E-02  7.8965164720854394E-02  8.7532733208118350E-07
  1.7437350256393050E-02  7.8757410927182789E-02  8.6705968182379014E-07
  1.7611073362960489E-02  7.8546694230727507E-02  8.5886977089228174E-07
  1.7786527220892766E-02  7.8361980409090662E-02  8.5075710063225185E-07
  1.7963729073148204E-02  7.8166104456421845E-02  8.4272105084641082E-07
  1.8142696334471579E-02  7.7995852712241867E-02  8.3476087773660346E-07
  1.8323446593105534E-02  7.7805172874301901E-02  8.2687572686148112E-07
  1.8505997612519150E-02  7.7617218014351050E-02  8.1906465394500090E-07
  1.8690367333153601E-02  7.7457107743375900E-02  8.1132664724148101E-07
  1.8876573874185350E-02  7.7279955850436968E-02  8.0366064421587777E-07
  1.9064635535306764E-02  7.7082713186980345E-02  7.9606553837587555E-07
  1.9254570798524582E-02  7.6885582272540165E-02  7.8854019019315087E-07
  1.9446398329976272E-02  7.6686663878918648E-02  7.8108345827763194E-07
  1.9640136981764422E-02  7.6484120289104257E-02  7.7369425152673443E-07
  1.9835805793809478E-02  7.6271208166445933E-02  7.6637159023289737E-07
  2.0033423995720952E-02  7.6091606996264632E-02  7.5911465712066385E-07
  2.0233011008687175E-02  7.5909629968476180E-02  7.5192282359742308E-07
  2.0434586447383971E-02  7.5727629148529110E-02  7.4479565005328774E-07
  2.0638170121902336E-02  7.5541048479055684E-02  7.3773286654394671E-07
  2.0843782039695273E-02  7.5349037885081571E-02  7.3073434275274538E-07
  2.1051442407544044E-02  7.5154577363992753E-02  7.2380005503168438E-07
  2.1261171633544025E-02  7.4951014578327174E-02  7.1693005733866246E-07
  2.1472990329110375E-02  7.4772513372906066E-02  7.1012446283620511E-07
  2.1686919311003593E-02  7.4587177482513589E-02  7.0338343117896583E-07
  2.1902979603375335E-02  7.4420882900785190E-02  6.9670714782918990E-07
  2.2121192439834618E-02  7.4270162991058694E-02  6.9009578885167388E-07
  2.2341579265534543E-02  7.4102362160429161E-02  6.8354947462814407E-07
  2.2564161739279841E-02  7.3918783905382798E-02  6.7706822378375236E-07
  2.2788961735655460E-02  7.3722710601915750E-02  6.7065192195648323E-07
  2.3016001347176317E-02  7.3524071790017020E-02  6.6430031030683991E-07
  2.3245302886458402E-02  7.3330083800184243E-02  6.5801299159677611E-07
  2.3476888888411644E-02  7.3133034725807566E-02  6.5178944819371368E-07
  2.3710782112454563E-02  7.2952552447043531E-02  6.4562906562489579E-07
  2.3947005544750943E-02  7.2770393336154690E-02  6.3953115618228733E-07
  2.4185582400468818E-02  7.2590457357864860E-02  6.3349497544762275E-07
  2.4426536126062062E-02  7.2411782161966712E-02  6.2751972830875538E-07
  2.4669890401574510E-02  7.2226750212478597E-02  6.2160457164096642E-07
  2.4915669142967181E-02  7.2051199107780683E-02  6.1574862251599899E-07
  2.5163896504468711E-02  7.1877418821672229E-02  6.0995097642461182E-07
  2.5414596880949086E-02  7.1709718281932386E-02  6.0421073380290893E-07
  2.5667794910317041E-02  7.1527477496283604E-02  5.9852702645180437E-07
  2.5923515475941461E-02  7.1340292277072434E-02  5.9289903731623930E-07
  2.6181783709096813E-02  7.1171507270738163E-02  5.8732601128181187E-07
  2.6442624991432899E-02  7.0989700760029931E-02  5.8180725712108426E-07
  2.6706064957469310E-02  7.0788878169368102E-02  5.7634214300875893E-07
  2.6972129497114743E-02  7.0604863403476145E-02  5.7093008860287559E-07
  2.7240844758211261E-02  7.0434752645641044E-02  5.6557055782918327E-07
  2.7512237149104050E-02  7.0258626673982208E-02  5.6026305735802938E-07
  2.7786333341236792E-02  7.0084708334927803E-02  5.5500713913409055E-07
  2.8063160271772768E-02  6.9897318008431464E-02  5.4980240080999954E-07
  2.8342745146242149E-02  6.9735162709997120E-02  5.4464847881632528E-07
  2.8625115441215657E-02  6.9576502197460061E-02  5.3954503308774623E-07
  2.8910298907004923E-02  6.9395958693042437E-02  5.3449172765372741E-07
  2.9198323570389591E-02  6.9226034524652244E-02  5.2948821277207179E-07
  2.9489217737371721E-02  6.9045153587906222E-02  5.2453411197166864E-07
  2.9783009995957659E-02  6.8856418830668259E-02  5.1962901570089401E-07
  3.0079729218967469E-02  6.8663504694927116E-02  5.1477248087899472E-07
  3.0379404566872478E-02  6.8489843060720368E-02  5.0996403433274627E-07
  3.0682065490661107E-02  6.8309030654881239E-02  5.0520317808006360E-07
  3.0987741734733173E-02  6.8126718582312715E-02  5.0048939384815354E-07
  3.1296463339823007E-02  6.7966463301264435E-02  4.9582214675931141E-07
  3.1608260645951805E-02  6.7806728961972124E-02  4.9120089106896988E-07
  3.1923164295409374E-02  6.7641105147385402E-02  4.8662508102288477E-07
  3.2241205235765437E-02  6.7461820657592167E-02  4.8209418730529756E-07
  3.2562414722911097E-02  6.7278294100168473E-02  4.7760771565957484E-07
  3.2886824324130606E-02  6.7109355081114735E-02  4.7316522231075974E-07
  3.3214465921203591E-02  6.6941478803838467E-02  4.6876632315496768E-07
  3.3545371713538295E-02  6.6757560678998115E-02  4.6441069549274961E-07
  3.3879574221336084E-02  6.6590143326666698E-02  4.6009807333428907E-07
  3.4217106288787387E-02  6.6414342595371337E-02  4.5582823883091866E-07
  3.4558001087299381E-02  6.6241018954415531E-02  4.5160101209885633E-07
  3.4902292118756131E-02  6.6067552459669748E-02  4.4741624122542134E-07
  3.5250013218810973E-02  6.5890843767215532E-02  4.4327379401399613E-07
  3.5601198560211683E-02  6.5725433023762825E-02  4.3917355244095572E-07
  3.5955882656158900E-02  6.5556249818309209E-02  4.3511540958812575E-07
  3.6314100363698046E-02  6.5398518672960024E-02  4.3109926730877641E-07
  3.6675886887144772E-02  6.5235532365242904E-02  4.2712503337060161E-07
  3.7041277781544826E-02  6.5072585603568378E-02  4.2319261894036638E-07
  3.7410308956168266E-02  6.4911905621750934E-02  4.1930193632078449E-07
  3.7783016678038496E-02  6.4754437810934193E-02  4.1545289682000810E-07
  3.8159437575496322E-02  6.4579130559278830E-02  4.1164540908694362E-07
  3.8539608641799852E-02  6.4403833253210668E-02  4.0787937789783395E-07
  3.8923567238759962E-02  6.4228302222912176E-02  4.0415470324322555E-07
  3.9311351100412048E-02  6.4040031100356040E-02  4.0047127966865794E-07
  3.9702998336724374E-02  6.3835132336092268E-02  3.9682899890203276E-07
  4.0098547437343542E-02  6.3668583228044764E-02  3.9322776536894598E-07
  4.0498037275376882E-02  6.3498784995368901E-02  3.8966753372508780E-07
  4.0901507111212897E-02  6.3331885080884373E-02  3.8614836949548776E-07
  4.1308996596379634E-02  6.3195323884597601E-02  3.8267052366716663E-07
  4.1720545777441484E-02  6.3035072771637474E-02  3.7923450411569668E-07
  4.2136195099934645E-02  6.2884415980885011E-02  3.7584112601728473E-07
  4.2555985412342248E-02  6.2716749256110399E-02  3.7249152962936847E-07
  4.2979957970108604E-02  6.2557153950379724E-02  3.6918716390312656E-07
  4.3408154439693633E-02  6.2379922653866909E-02  3.6592974353522214E-07
  4.3840616902667766E-02  6.2212033122903895E-02  3.6272119158425113E-07
  4.4277387859847576E-02  6.2040547378970717E-02  3.5956357937156967E-07
  4.4718510235472499E-02  6.1871336078188073E-02  3.5645907151636491E-07
  4.5164027381423361E-02  6.1706515006166550E-02  3.5340987388617042E-07
  4.5613983081482810E-02  6.1547489031150794E-02  3.5041818057665754E-07
  4.6068421555638311E-02  6.1375367557585533E-02  3.4748611682228570E-07
  4.6527387464427652E-02  6.1221842977467376E-02  3.4461567680961289E-07
  4.6990925913328360E-02  6.1059567904509178E-02  3.4180866194664659E-07
  4.7459082457190334E-02  6.0897907874331976E-02  3.3906663555666836E-07
  4.7931903104712778E-02  6.0737649888980609E-02  3.3639089945238832E-07
  4.8409434322965780E-02  6.0582191531486355E-02  3.3378249484821827E-07
  4.8891723041957054E-02  6.0417055871327348E-02  3.3124222518997410E-07
  4.9378816659243867E-02  6.0262647487598540E-02  3.2877069359894443E-07
  4.9870763044591163E-02  6.0111956859092049E-02  3.2636834605184208E-07
  5.0367610544676117E-02  5.9939190538808473E-02  3.2403551404533031E-07
  5.0869407987839385E-02  5.9788989336649716E-02  3.2177246609525706E-07
  5.1376204688883660E-02  5.9629827838160614E-02  3.1957949103840539E-07
  5.1888050453920392E-02  5.9475940119460904E-02  3.1745702975352915E-07
  5.2404995585264423E-02  5.9324730575344514E-02  3.1540585650101744E-07
  5.2927090886377468E-02  5.9168019541874929E-02  3.1342729273877922E-07
  5.3454387666860899E-02  5.9017340255692267E-02  3.1152341266514423E-07
  5.3986937747498451E-02  5.8872441629177159E-02  3.0969719960848192E-07
  5.4524793465348692E-02  5.8711580611987328E-02  3.0795262484692965E-07
  5.5068007678888677E-02  5.8558179793137488E-02  3.0629463963784696E-07
  5.5616633773208718E-02  5.8396989118434606E-02  3.0472909423158617E-07
  5.6170725665258860E-02  5.8230562323363336E-02  3.0326261226424509E-07
  5.6730337809147408E-02  5.8081334999689385E-02  3.0190245288934761E-07
  5.7295525201492843E-02  5.7930114179380106E-02  3.0065637959946484E-07
  5.7866343386828487E-02  5.7766020391247806E-02  2.9953252868703747E-07
  5.8442848463061171E-02  5.7626247274472436E-02  2.9853927161230490E-07
  5.9025097086984418E-02  5.7479695556542351E-02  2.9768506112404225E-07
  5.9613146479846509E-02  5.7339006347635023E-02  2.9697825123049583E-07
  6.0207054432973840E-02  5.7201962375021100E-02  2.9642691818794301E-07
  6.0806879313450496E-02  5.7067256291931497E-02  2.9603872160049285E-07
  6.1412680069854467E-02  5.6933428176357506E-02  2.9582082178890888E-07
  6.2024516238050720E-02  5.6809937405665381E-02  2.9577987150448396E-07
  6.2642447947042199E-02  5.6687734228867297E-02  2.9592208305617020E-07
  6.3266535924879255E-02  5.6547187818715927E-02  2.9625335498460408E-07
  6.3896841504627572E-02  5.6428290611690073E-02  2.9677943343310626E-07
  6.4533426630395838E-02  5.6298877497425487E-02  2.9750607878117194E-07
  6.5176353863423311E-02  5.6172772756423073E-02  2.9843921451637471E-07
  6.5825686388228291E-02  5.6043263136523969E-02  2.9958502911602691E-07
  6.6481488018817453E-02  5.5911740246346785E-02  3.0095001563055785E-07
  6.7143823204957334E-02  5.5770561636016083E-02  3.0254095435175968E-07
  6.7812757038508267E-02  5.5649504247160225E-02  3.0436485147354746E-07
  6.8488355259821401E-02  5.5514298285777842E-02  3.0642883645469352E-07
  6.9170684264199103E-02  5.5398472854928105E-02  3.0874005865635100E-07
  6.9859811108420503E-02  5.5272531124517570E-02  3.1130561591831117E-07
  7.0555803517331386E-02  5.5142014588768481E-02  3.1413253417439630E-07
  7.1258729890499709E-02  5.5034511778911603E-02  3.1722780215155077E-07
  7.1968659308938060E-02  5.4918971080669801E-02  3.2059845067078740E-07
  7.2685661541892529E-02  5.4816918948669073E-02  3.2425165546775402E-07
  7.3409807053699108E-02  5.4709277361408855E-02  3.2819483749158637E-07
  7.4141167010709122E-02  5.4594110525813984E-02  3.3243572002377607E-07
  7.4879813288282984E-02  5.4488267376163926E-02  3.3698229965783339E-07
  7.5625818477853504E-02  5.4371920763070743E-02  3.4184270594004464E-07
  7.6379255894060805E-02  5.4253507559592046E-02  3.4702494517132669E-07
  7.7140199581956378E-02  5.4130585145880893E-02  3.5253651863306626E-07
  7.7908724324280351E-02  5.4017095701472312E-02  3.5838395873926528E-07
  7.8684905648811518E-02  5.3898478910001116E-02  3.6457235314040138E-07
  7.9468819835788684E-02  5.3774126981605358E-02  3.7110492689553073E-07
  8.0260543925408268E-02  5.3657072602255454E-02  3.7798273773924809E-07
  8.1060155725395086E-02  5.3545662869354249E-02  3.8520450477300758E-07
  8.1867733818648800E-02  5.3417479932741235E-02  3.9276654727524877E-07
  8.2683357570967300E-02  5.3308456694208299E-02  4.0066279290140977E-07
  8.3507107138846126E-02  5.3190759559781038E-02  4.0888482967035753E-07
  8.4339063477355800E-02  5.3070750035854659E-02  4.1742196042027753E-07
  8.5179308348098240E-02  5.2935405203264799E-02  4.2626126472910234E-07
  8.6027924327241795E-02  5.2820076023150607E-02  4.3538772303461933E-07
  8.6884994813636193E-02  5.2696957716793870E-02  4.4478438183799696E-07
  8.7750604037009225E-02  5.2580596587270614E-02  4.5443253540555552E-07
  8.8624837066244300E-02  5.2456632318760611E-02  4.6431193850270516E-07
  8.9507779817740357E-02  5.2338962205608165E-02  4.7440100624037277E-07
  9.0399519063856057E-02  5.2217886602405804E-02  4.8467694797047022E-07
  9.1300142441437082E-02  5.2094953616204330E-02  4.9511579442458982E-07
  9.2209738460428473E-02  5.1976586701884070E-02  5.0569230824428433E-07
  9.3128396512573999E-02  5.1846488508683168E-02  5.1637980897661646E-07
  9.4056206880200111E-02  5.1733595166477700E-02  5.2714995471327442E-07
  9.4993260745089070E-02  5.1609180307735862E-02  5.3797256467229828E-07
  9.5939650197440524E-02  5.1481662130196275E-02  5.4881555464346174E-07
  9.6895468244920610E-02  5.1356064526761100E-02  5.5964502644439157E-07
  9.7860808821803383E-02  5.1228195238815721E-02  5.7042555602323542E-07
  9.8835766798201982E-02  5.1094478493446803E-02  5.8112073567430967E-07
