 #p(MeV) \t \delta f_\\nu \t \delta f_\\nubar
  1.1979272178096347E+00  5.7934481495165031E-08  4.5846259995448180E-08
  1.2098618084819348E+00  5.6739864964423217E-08  4.5000098365018007E-08
  1.2219152999124754E+00  5.5570712704705560E-08  4.4169231914562895E-08
  1.2340888766739591E+00  5.4426455429364697E-08  4.3353391775360216E-08
  1.2463837351406293E+00  5.3306538110876203E-08  4.2552314293430553E-08
  1.2588010836058512E+00  5.2210421977485498E-08  4.1765743137649192E-08
  1.2713421424008531E+00  5.1137580902385097E-08  4.0993426395302950E-08
  1.2840081440146587E+00  5.0087500128595799E-08  4.0235115537691621E-08
  1.2968003332152132E+00  4.9059676892749281E-08  3.9490566055065261E-08
  1.3097199671717101E+00  4.8053620147144617E-08  3.8759537416719503E-08
  1.3227683155781460E+00  4.7068850266959408E-08  3.8041793014786079E-08
  1.3359466607780976E+00  4.6104898765453327E-08  3.7337100108572615E-08
  1.3492562978907470E+00  4.5161308016922734E-08  3.6645229769453258E-08
  1.3626985349381633E+00  4.4237630987172282E-08  3.5965956826312065E-08
  1.3762746929738459E+00  4.3333430971277732E-08  3.5299059811540016E-08
  1.3899861062125578E+00  4.2448281337822916E-08  3.4644320907001575E-08
  1.4038341221614428E+00  4.1581765080704243E-08  3.4001525700188609E-08
  1.4178201017524550E+00  4.0733473213193256E-08  3.3370461819270289E-08
  1.4319454194761094E+00  3.9903009647681132E-08  3.2750923074073771E-08
  1.4462114635165557E+00  3.9089992774358426E-08  3.2142710985732401E-08
  1.4606196358880101E+00  3.8294049729732282E-08  3.1545630433287705E-08
  1.4751713525725354E+00  3.7514815723392341E-08  3.0959489246723016E-08
  1.4898680436591998E+00  3.6751933860156464E-08  3.0384098174571082E-08
  1.5047111534846240E+00  3.6005054966284752E-08  2.9819270851535057E-08
  1.5197021407749187E+00  3.5273837419661547E-08  2.9264823766134304E-08
  1.5348424787890509E+00  3.4557946983846669E-08  2.8720576228383892E-08
  1.5501336554636231E+00  3.3857056645901673E-08  2.8186350337519373E-08
  1.5655771735591051E+00  3.3170846458037662E-08  2.7661970949911849E-08
  1.5811745508075228E+00  3.2499003423183606E-08  2.7147265686012662E-08
  1.5969273200616094E+00  3.1841222060933431E-08  2.6642065585959058E-08
  1.6128370294454537E+00  3.1197201518730269E-08  2.6146202822172120E-08
  1.6289052425066404E+00  3.0566640427222020E-08  2.5659506495673458E-08
  1.6451335383699111E+00  2.9949242952729216E-08  2.5181807613058679E-08
  1.6615235118923575E+00  2.9344720204812308E-08  2.4712940286029651E-08
  1.6780767738201516E+00  2.8752790061530778E-08  2.4252741675936172E-08
  1.6947949509468525E+00  2.8173176998233986E-08  2.3801051938301656E-08
  1.7116796862732733E+00  2.7605611921066179E-08  2.3357714168334869E-08
  1.7287326391689541E+00  2.7049832005042973E-08  2.2922574347409772E-08
  1.7459554855352390E+00  2.6505580536562643E-08  2.2495481290497604E-08
  1.7633499179699743E+00  2.5972606760213636E-08  2.2076286594529544E-08
  1.7809176459338520E+00  2.5450665723255556E-08  2.1664844581347113E-08
  1.7986603959184126E+00  2.4939517904977811E-08  2.1261012030923500E-08
  1.8165799116157124E+00  2.4438928919405988E-08  2.0864647965223648E-08
  1.8346779540896934E+00  2.3948670775406364E-08  2.0475614824350805E-08
  1.8529563019492474E+00  2.3468521215546565E-08  2.0093777995433268E-08
  1.8714167515230189E+00  2.2998263040646024E-08  1.9719005319190133E-08
  1.8900611170359345E+00  2.2537683978213884E-08  1.9351167039023505E-08
  1.9088912307875008E+00  2.2086576563187080E-08  1.8990135758130391E-08
  1.9279089433318803E+00  2.1644738021774430E-08  1.8635786397354197E-08
  1.9471161236597498E+00  2.1211970158319751E-08  1.8287996153764541E-08
  1.9665146593819816E+00  2.0788079245098558E-08  1.7946644459952755E-08
  1.9861064569151528E+00  2.0372875914966558E-08  1.7611612944031730E-08
  2.0058934416688960E+00  1.9966175058114816E-08  1.7282785391632920E-08
  2.0258775582351278E+00  1.9567795769724523E-08  1.6960047755578376E-08
  2.0460607705791487E+00  1.9177561360026104E-08  1.6643288217132047E-08
  2.0664450622326616E+00  1.8795300172406853E-08  1.6332397920281320E-08
  2.0870324364887005E+00  1.8420845365024392E-08  1.6027270820558478E-08
  2.1078249165985086E+00  1.8054033753312406E-08  1.5727802753038293E-08
  2.1288245459703790E+00  1.7694705656710036E-08  1.5433891343350138E-08
  2.1500333883704679E+00  1.7342704820733216E-08  1.5145435979650514E-08
  2.1714535281256166E+00  1.6997878340865568E-08  1.4862337784957230E-08
  2.1930870703281942E+00  1.6660076588223839E-08  1.4584499589842522E-08
  2.2149361410429713E+00  1.6329153136953713E-08  1.4311825905482985E-08
  2.2370028875160721E+00  1.6004964693312576E-08  1.4044222897063203E-08
  2.2592894783859849E+00  1.5687371026188911E-08  1.3781598357326518E-08
  2.2817981038967008E+00  1.5376234887647323E-08  1.3523861669144925E-08
  2.3045309761129538E+00  1.5071422092898172E-08  1.3270923917191156E-08
  2.3274903291376159E+00  1.4772801963284138E-08  1.3022698328863731E-08
  2.3506784193312633E+00  1.4480247104904528E-08  1.2779100077025429E-08
  2.3740975255339123E+00  1.4193632857767675E-08  1.2540045829519490E-08
  2.3977499492889827E+00  1.3912837138796650E-08  1.2305453643609335E-08
  2.4216380150694867E+00  1.3637740388208128E-08  1.2075242946281202E-08
  2.4457640705064594E+00  1.3368225517061295E-08  1.1849334514751315E-08
  2.4701304866196891E+00  1.3104177855914120E-08  1.1627650457148396E-08
  2.4947396580507188E+00  1.2845485104562926E-08  1.1410114193373330E-08
  2.5195940032981952E+00  1.2592037282841197E-08  1.1196650436137364E-08
  2.5446959649555390E+00  1.2343726682456618E-08  1.0987185172182224E-08
  2.5700480099509990E+00  1.2100447820222274E-08  1.0781645644050175E-08
  2.5956526297900981E+00  1.1862097292539936E-08  1.0579960236680011E-08
  2.6215123408004763E+00  1.1628572917981354E-08  1.0382057709315437E-08
  2.6476296843791971E+00  1.1399772738420382E-08  1.0187866369390159E-08
  2.6740072272425053E+00  1.1175596350816788E-08  9.9973152808134875E-09
  2.7006475616780659E+00  1.0955945619513061E-08  9.8103348977623779E-09
  2.7275533057997388E+00  1.0740724631231144E-08  9.6268570450329317E-09
  2.7547271038048611E+00  1.0529839640991695E-08  9.4468148900451318E-09
  2.7821716262341245E+00  1.0323199019448856E-08  9.2701429154396277E-09
  2.8098895702340148E+00  1.0120713201601224E-08  9.0967768922536905E-09
  2.8378836598218808E+00  9.9222946368400775E-09  8.9266538536635804E-09
  2.8661566461536476E+00  9.7278577402973266E-09  8.7597120692811057E-09
  2.8947113077941782E+00  9.5373188459602496E-09  8.5958910204835609E-09
  2.9235504509903469E+00  9.3505962122968082E-09  8.4351314259891923E-09
  2.9526769099468315E+00  9.1676104820261061E-09  8.2773756937992565E-09
  2.9820935471046370E+00  8.9882858698272183E-09  8.1225689895265444E-09
  3.0118032534224186E+00  8.8125494345161124E-09  7.9706585699642905E-09
  3.0418089486605813E+00  8.6403297268699340E-09  7.8215926058846635E-09
  3.0721135816682379E+00  8.4715566841736897E-09  7.6753201026361042E-09
  3.1027201306729957E+00  8.3061616045740014E-09  7.5317908897145571E-09
  3.1336316035736558E+00  8.1440771218738563E-09  7.3909556103700090E-09
  3.1648510382358195E+00  7.9852371807617009E-09  7.2527657112517460E-09
  3.1963815027904285E+00  7.8295770124680028E-09  7.1171734320956359E-09
  3.2282260959352982E+00  7.6770331108424457E-09  6.9841317954565489E-09
  3.2603879472396464E+00  7.5275432087767184E-09  6.8535945964223813E-09
  3.2928702174516480E+00  7.3810462394669359E-09  6.7255163772141899E-09
  3.3256760988090730E+00  7.2374821043839369E-09  6.5998522161885032E-09
  3.3588088153529956E+00  7.0967908931554545E-09  6.4765570268140779E-09
  3.3922716232446528E+00  6.9589126473837170E-09  6.3555853794953616E-09
  3.4260678110854381E+00  6.8237885341411949E-09  6.2368925635587008E-09
  3.4602007002400974E+00  6.6913610234764084E-09  6.1204347536885381E-09
  3.4946736451631453E+00  6.5615738576650693E-09  6.0061689918485158E-09
  3.5294900337285187E+00  6.4343720212307189E-09  5.8940531695778300E-09
  3.5646532875625296E+00  6.3097017117199722E-09  5.7840460106596388E-09
  3.6001668623801342E+00  6.1875103112119931E-09  5.6761070541536089E-09
  3.6360342483245396E+00  6.0677463585425228E-09  5.5701966377846875E-09
  3.6722589703102049E+00  5.9503595222303706E-09  5.4662758816872943E-09
  3.7088445883692622E+00  5.8353005762355002E-09  5.3643066745868678E-09
  3.7457946980013785E+00  5.7225214368811709E-09  5.2642517189118668E-09
  3.7831129305271065E+00  5.6119754451960871E-09  5.1660748024542982E-09
  3.8208029534447583E+00  5.5036178106104242E-09  5.0697411989902775E-09
  3.8588684707908425E+00  5.3974049526108768E-09  4.9752170748090660E-09
  3.8973132235040677E+00  5.2932941554618208E-09  4.8824691850615079E-09
  3.9361409897929982E+00  5.1912435485464326E-09  4.7914648621525196E-09
  3.9753555855073648E+00  5.0912120899269490E-09  4.7021720068176217E-09
  4.0149608645130650E+00  4.9931595502174046E-09  4.6145590793043848E-09
  4.0549607190709063E+00  4.8970464967628757E-09  4.5285950906585678E-09
  4.0953590802191329E+00  4.8028342781196163E-09  4.4442495941146911E-09
  4.1361599181597484E+00  4.7104850088304777E-09  4.3614926765907184E-09
  4.1773672426486845E+00  4.6199615544929129E-09  4.2802949502913370E-09
  4.2189851033898762E+00  4.5312275065415700E-09  4.2006275341580315E-09
  4.2610175904332515E+00  4.4442470637068047E-09  4.1224619462812049E-09
  4.3034688345766776E+00  4.3589847257574750E-09  4.0457698302788674E-09
  4.3463430077719236E+00  4.2754054112401293E-09  3.9705230715056791E-09
  4.3896443235346769E+00  4.1934747667107522E-09  3.8966940823611669E-09
  4.4333770373586132E+00  4.1131591675719620E-09  3.8242558074320620E-09
  4.4775454471336165E+00  4.0344257019177628E-09  3.7531817131615352E-09
  4.5221538935681727E+00  3.9572421547544536E-09  3.6834457777188794E-09
  4.5672067606159450E+00  3.8815769925885780E-09  3.6150224810659112E-09
  4.6127084759066097E+00  3.8073993483727568E-09  3.5478867952162041E-09
  4.6586635111809978E+00  3.7346790068006400E-09  3.4820141746834572E-09
  4.7050763827305628E+00  3.6633863899048506E-09  3.4173805470785095E-09
  4.7519516518412104E+00  3.5934925439663760E-09  3.3539623048394357E-09
  4.7992939252415745E+00  3.5249691800739468E-09  3.2917363487192553E-09
  4.8471078555557590E+00  3.4577887587103139E-09  3.2306801702122210E-09
  4.8953981417605608E+00  3.3919244814843563E-09  3.1707718433272419E-09
  4.9441695296472759E+00  3.3273501185046194E-09  3.1119898693572209E-09
  4.9934268122881091E+00  3.2640399686580995E-09  3.0543131436671947E-09
  5.0431748305072066E+00  3.2019688488513996E-09  2.9977209487956281E-09
  5.0934184733563947E+00  3.1411120834734082E-09  2.9421929476663798E-09
  5.1441626785956629E+00  3.0814454940748711E-09  2.8877091769098801E-09
  5.1954124331784310E+00  3.0229453892602732E-09  2.8342500402920311E-09
  5.2471727737416396E+00  2.9655885547876306E-09  2.7817963022494049E-09
  5.2994487871007347E+00  2.9093522438735277E-09  2.7303290815310919E-09
  5.3522456107495948E+00  2.8542141679354932E-09  2.6798298451712916E-09
  5.4055684333654019E+00  2.8001524600242404E-09  2.6302803758243904E-09
  5.4594224953185808E+00  2.7471456579866375E-09  2.5816627572858374E-09
  5.5138130891878028E+00  2.6951728152097703E-09  2.5339594824589225E-09
  5.5687455602801199E+00  2.6442134274537446E-09  2.4871533877931434E-09
  5.6242253071562720E+00  2.5942474003020522E-09  2.4412276252072633E-09
  5.6802577821612470E+00  2.5452550408983378E-09  2.3961656565017338E-09
  5.7368484919601244E+00  2.4972170499059418E-09  2.3519512479138186E-09
  5.7940029980792316E+00  2.4501145136285266E-09  2.3085684647606579E-09
  5.8517269174527211E+00  2.4039288962884973E-09  2.2660016661689966E-09
  5.9100259229745875E+00  2.3586420324600688E-09  2.2242354998904085E-09
  5.9689057440561664E+00  2.3142361196539347E-09  2.1832548972009008E-09
  6.0283721671892021E+00  2.2706937105929718E-09  2.1430450674421947E-09
  6.0884310365145318E+00  2.2279977111294002E-09  2.1035914980133552E-09
  6.1490882543964283E+00  2.1861313762085065E-09  2.0648799530057601E-09
  6.2103497820026314E+00  2.1450781228177619E-09  2.0268962985006745E-09
  6.2722216398902306E+00  2.1048215923147326E-09  1.9896265625650890E-09
  6.3347099085973273E+00  2.0653457642489491E-09  1.9530570430105209E-09
  6.3978207292405944E+00  2.0266349529558939E-09  1.9171743057187149E-09
  6.4615603041188177E+00  1.9886738002637568E-09  1.8819651793138403E-09
  6.5259348973224389E+00  1.9514472683664866E-09  1.8474167499417797E-09
  6.5909508353491502E+00  1.9149406328591478E-09  1.8135163561543948E-09
  6.6566145077256493E+00  1.8791394759316759E-09  1.7802515838966063E-09
  6.7229323676355826E+00  1.8440296797172555E-09  1.7476102615941979E-09
  6.7899109325537417E+00  1.8095974199795129E-09  1.7155804555211598E-09
  6.8575567848865484E+00  1.7758291645675630E-09  1.6841504697280262E-09
  6.9258765726189910E+00  1.7427116814339795E-09  1.6533088551365550E-09
  6.9948770099679454E+00  1.7102320910237979E-09  1.6230444606831999E-09
  7.0645648780420114E+00  1.6783778248417040E-09  1.5933463948282637E-09
  7.1349470255079455E+00  1.6471365683638688E-09  1.5642039724525863E-09
  7.2060303692637380E+00  1.6164962540349587E-09  1.5356067093190863E-09
  7.2778218951183513E+00  1.5864450562338164E-09  1.5075443183640716E-09
  7.3503286584782765E+00  1.5569713863438516E-09  1.4800067060545829E-09
  7.4235577850409147E+00  1.5280638879258646E-09  1.4529839688106898E-09
  7.4975164714948637E+00  1.4997114319911399E-09  1.4264663894916537E-09
  7.5722119862271562E+00  1.4719031123726496E-09  1.4004444339448796E-09
  7.6476516700376145E+00  1.4446282411795676E-09  1.3749087476045784E-09
  7.7238429368602510E+00  1.4178763412524479E-09  1.3498501491706754E-09
  7.8007932744918742E+00  1.3916371242993535E-09  1.3252596103325596E-09
  7.8785102453279787E+00  1.3659004557907504E-09  1.3011282230636590E-09
  7.9570014871059538E+00  1.3406563434933502E-09  1.2774471900153292E-09
  8.0362747136556667E+00  1.3158949917316670E-09  1.2542078769922834E-09
  8.1163377156575738E+00  1.2916068079434300E-09  1.2314018199009988E-09
  8.1971983614083506E+00  1.2677823982892663E-09  1.2090207213223060E-09
  8.2788645975941701E+00  1.2444125633501504E-09  1.1870564471437184E-09
  8.3613444500716341E+00  1.2214882939225686E-09  1.1655010232615042E-09
  8.4446460246565831E+00  1.1990007669090318E-09  1.1443466323510505E-09
  8.5287775079206654E+00  1.1769413413017029E-09  1.1235856107040543E-09
  8.6137471679958981E+00  1.1553015542570340E-09  1.1032104451312659E-09
  8.6995633553872160E+00  1.1340731177391177E-09  1.0832137703868286E-09
  8.7862345037931497E+00  1.1132479219394510E-09  1.0635883731418533E-09
  8.8737691309346420E+00  1.0928180293626198E-09  1.0443271872188535E-09
  8.9621758393921329E+00  1.0727755085549653E-09  1.0254231362230554E-09
  9.0514633174510184E+00  1.0531124788499625E-09  1.0068691762384203E-09
  9.1416403399554760E+00  1.0338212316344565E-09  9.8865841100809093E-10
  9.2327157691708166E+00  1.0148942300630347E-09  9.7078409218951033E-10
  9.3246985556544679E+00  9.9632410488046218E-10  9.5323961591934916E-10
  9.4175977391355854E+00  9.7810365035468418E-10  9.3601851946451436E-10
  9.5114224494034385E+00  9.6022582031716348E-10  9.1911447795689640E-10
  9.6061819072046433E+00  9.4268372430744928E-10  9.0252130120952862E-10
  9.7018854251493885E+00  9.2547062381897148E-10  8.8623293061197941E-10
  9.7985424086265880E+00  9.0857992869372969E-10  8.7024343615251962E-10
  9.8961623567282331E+00  8.9200519622236750E-10  8.5454701603209222E-10
  9.9947548631829441E+00  8.7574012402790050E-10  8.3913799022301792E-10
  1.0094329617298792E+01  8.5977856902986266E-10  8.2401081875256000E-10
  1.0194896404915495E+01  8.4411458083331356E-10  8.0916013393988399E-10
  1.0296465109366201E+01  8.2874234201038685E-10  7.9458068420445037E-10
  1.0399045712448745E+01  8.1365615698821928E-10  7.8026732387197484E-10
  1.0502648295406614E+01  7.9885044930520429E-10  7.6621501090069998E-10
  1.0607283039919716E+01  7.8431975893375799E-10  7.5241880465969472E-10
  1.0712960229105002E+01  7.7005873966783797E-10  7.3887386375788523E-10
  1.0819690248527031E+01  7.5606215657353902E-10  7.2557544392258770E-10
  1.0927483587218630E+01  7.4232488350109737E-10  7.1251889592631632E-10
  1.1036350838711748E+01  7.2884190065248195E-10  6.9969966355664793E-10
  1.1146302702078502E+01  7.1560828898889475E-10  6.8711327854129620E-10
  1.1257349982982667E+01  7.0261922078561617E-10  6.7475535175020625E-10
  1.1369503594741630E+01  6.8987009373481518E-10  6.6262170189108011E-10
  1.1482774559398891E+01  6.7735677939481942E-10  6.5070859326296545E-10
  1.1597174008807265E+01  6.6507529618901348E-10  6.3901242352444523E-10
  1.1712713185722885E+01  6.5302171388513701E-10  6.2752963281226861E-10
  1.1829403444910124E+01  6.4119215339975647E-10  6.1625670372575226E-10
  1.1947256254257457E+01  6.2958278667943329E-10  6.0519016138095926E-10
  1.2066283195904500E+01  6.1818983656225549E-10  5.9432657344314083E-10
  1.2186495967380280E+01  6.0700957662037405E-10  5.8366255013803764E-10
  1.2307906382752810E+01  5.9603833098417933E-10  5.7319474424265350E-10
  1.2430526373790094E+01  5.8527247414879543E-10  5.6291985105614360E-10
  1.2554367991132812E+01  5.7470843158974106E-10  5.5283460914036548E-10
  1.2679443405478573E+01  5.6434268170509199E-10  5.4293580228117635E-10
  1.2805764908777968E+01  5.5417173664891810E-10  5.3322024115740371E-10
  1.2933344915442653E+01  5.4419213946465127E-10  5.2368476047940007E-10
  1.3062195963565360E+01  5.3440049846460305E-10  5.1432625241023449E-10
  1.3192330716152046E+01  5.2479347251660773E-10  5.0514165275681771E-10
  1.3323761962366452E+01  5.1536776995781125E-10  4.9612794006400077E-10
  1.3456502618786937E+01  5.0612014823740917E-10  4.8728213540131908E-10
  1.3590565730675802E+01  4.9704741354954398E-10  4.7860130213767943E-10
  1.3725964473261504E+01  4.8814642045675134E-10  4.7008254570440143E-10
  1.3862712153033273E+01  4.7941407150443178E-10  4.6172301334707251E-10
  1.4000822209048911E+01  4.7084731682672035E-10  4.5351989386658921E-10
  1.4140308214255622E+01  4.6244315367526032E-10  4.4547041728528683E-10
  1.4281183876823723E+01  4.5419863161051459E-10  4.3757186000611047E-10
  1.4423463041493992E+01  4.4611085810179516E-10  4.2982155027309905E-10
  1.4567159690938219E+01  4.3817701050489631E-10  4.2221687974281117E-10
  1.4712287947133325E+01  4.3039433307685561E-10  4.1475530079257031E-10
  1.4858862072749314E+01  4.2276011152609583E-10  4.0743430212763011E-10
  1.5006896472550903E+01  4.1527167186577018E-10  4.0025140777946039E-10
  1.5156405694813129E+01  4.0792638017467734E-10  3.9320417697400804E-10
  1.5307404432751186E+01  4.0072164234636967E-10  3.8629020398650476E-10
  1.5459907525964381E+01  3.9365490382696573E-10  3.7950711798333238E-10
  1.5613929961894465E+01  3.8672364934218416E-10  3.7285258285144768E-10
  1.5769486877298633E+01  3.7992540261408510E-10  3.6632429701585801E-10
  1.5926593559737070E+01  3.7325772607298856E-10  3.5991999325008325E-10
  1.6085265449075298E+01  3.6671821599160081E-10  3.5363743406745450E-10
  1.6245518139001657E+01  3.6030447357115258E-10  3.4747438395444772E-10
  1.6407367378559741E+01  3.5401406437517228E-10  3.4142857052757829E-10
  1.6570829073696085E+01  3.4784440583354607E-10  3.3549757642250470E-10
  1.6735919288823538E+01  3.4179293286545274E-10  3.2967899858341503E-10
  1.6902654248399781E+01  3.3585713994559364E-10  3.2397048875279509E-10
  1.7071050338521921E+01  3.3003457961861212E-10  3.1836975213403471E-10
  1.7241124108536948E+01  3.2432286104213827E-10  3.1287454607826938E-10
  1.7412892272667939E+01  3.1871964857010665E-10  3.0748267880672626E-10
  1.7586371711656827E+01  3.1322266037507961E-10  3.0219200816748540E-10
  1.7761579474423353E+01  3.0782966710841438E-10  2.9700044042564145E-10
