 #p(MeV) \t \delta f_\\nu \t \delta f_\\nubar
  1.7408458261811321E-02  9.9232431872143603E-02  2.1284497994042305E-06
  1.7581893526075892E-02  9.8985291901981617E-02  2.1095528822822327E-06
  1.7757056674018501E-02  9.8752181901205910E-02  2.0908045185179281E-06
  1.7933964920027586E-02  9.8541333505418910E-02  2.0722042030042681E-06
  1.8112635649993353E-02  9.8365136870562545E-02  2.0537515192874137E-06
  1.8293086423016469E-02  9.8147200297306225E-02  2.0354461155678070E-06
  1.8475334973133650E-02  9.7920264283669109E-02  2.0172876817438222E-06
  1.8659399211060506E-02  9.7643080498594437E-02  1.9992759424620046E-06
  1.8845297225951785E-02  9.7403310012218969E-02  1.9814106599082764E-06
  1.9033047287179042E-02  9.7160097333858039E-02  1.9636915956274537E-06
  1.9222667846126147E-02  9.6963287403741272E-02  1.9461184257459024E-06
  1.9414177538002567E-02  9.6749295414067960E-02  1.9286906512746982E-06
  1.9607595183674786E-02  9.6525593245309904E-02  1.9114075427848663E-06
  1.9802939791515987E-02  9.6288917531310650E-02  1.8942681310771930E-06
  2.0000230559274041E-02  9.6046853416159164E-02  1.8772712315580062E-06
  2.0199486875958295E-02  9.5794390663210244E-02  1.8604154845693981E-06
  2.0400728323744958E-02  9.5580815847186973E-02  1.8436993982073117E-06
  2.0603974679901608E-02  9.5347339050036617E-02  1.8271213854920554E-06
  2.0809245918730856E-02  9.5119265929373614E-02  1.8106798007296904E-06
  2.1016562213533284E-02  9.4905506395868283E-02  1.7943729656778548E-06
  2.1225943938590064E-02  9.4704215965676505E-02  1.7781991604724408E-06
  2.1437411671165214E-02  9.4471981143773268E-02  1.7621566189993708E-06
  2.1650986193527878E-02  9.4286129681301914E-02  1.7462435701623368E-06
  2.1866688494994780E-02  9.4069335813929275E-02  1.7304583129452945E-06
  2.2084539773992860E-02  9.3837433388656744E-02  1.7147992879751561E-06
  2.2304561440142711E-02  9.3604254753989785E-02  1.6992651176999228E-06
  2.2526775116362543E-02  9.3397709575861632E-02  1.6838546116034761E-06
  2.2751202640993218E-02  9.3171237792708805E-02  1.6685667478347715E-06
  2.2977866069944505E-02  9.2942050148522734E-02  1.6534006440557868E-06
  2.3206787678862556E-02  9.2731765365156940E-02  1.6383555273421229E-06
  2.3437989965319175E-02  9.2517708619825570E-02  1.6234307040816669E-06
  2.3671495651022702E-02  9.2298051278419502E-02  1.6086255295599406E-06
  2.3907327684051079E-02  9.2077488389121789E-02  1.5939394054665754E-06
  2.4145509241107112E-02  9.1852837667289106E-02  1.5793718009230989E-06
  2.4386063729796115E-02  9.1627591859462801E-02  1.5649222580022653E-06
  2.4629014790926433E-02  9.1394164060551744E-02  1.5505903661286980E-06
  2.4874386300832673E-02  9.1214593213594139E-02  1.5363757179802841E-06
  2.5122202373722227E-02  9.0988901383196402E-02  1.5222778688758077E-06
  2.5372487364045158E-02  9.0803530577130503E-02  1.5082963131791666E-06
  2.5625265868887599E-02  9.0600134435184360E-02  1.4944304777184997E-06
  2.5880562730389096E-02  9.0372779571216769E-02  1.4806797268045994E-06
  2.6138403038184044E-02  9.0141393483970073E-02  1.4670433726513875E-06
  2.6398812131867299E-02  8.9898010817287363E-02  1.4535206872207337E-06
  2.6661815603484598E-02  8.9678982861525092E-02  1.4401109148510184E-06
  2.6927439300047509E-02  8.9460248166244802E-02  1.4268132808887310E-06
  2.7195709326073698E-02  8.9245092633652712E-02  1.4136270009478244E-06
  2.7466652046152309E-02  8.9033404702780594E-02  1.4005513058229468E-06
  2.7740294087534988E-02  8.8847421586327177E-02  1.3875854815128490E-06
  2.8016662342752782E-02  8.8648297290542702E-02  1.3747289087777469E-06
  2.8295783972258938E-02  8.8462152683506740E-02  1.3619810866759796E-06
  2.8577686407098173E-02  8.8249412331640770E-02  1.3493416344106441E-06
  2.8862397351602540E-02  8.8034204801150553E-02  1.3368102765013303E-06
  2.9149944786114022E-02  8.7815266905055561E-02  1.3243868197913279E-06
  2.9440356969734433E-02  8.7600175172993289E-02  1.3120711293590713E-06
  2.9733662443102511E-02  8.7386549513430931E-02  1.2998631073352994E-06
  3.0029890031198901E-02  8.7168343360782011E-02  1.2877626768286810E-06
  3.0329068846178874E-02  8.6967822150307530E-02  1.2757697674069831E-06
  3.0631228290233396E-02  8.6763698658577595E-02  1.2638842855597936E-06
  3.0936398058478701E-02  8.6552532423055537E-02  1.2521060607050745E-06
  3.1244608141874564E-02  8.6342121807240518E-02  1.2404347792603160E-06
  3.1555888830171713E-02  8.6141695489443199E-02  1.2288699309745057E-06
  3.1870270714888647E-02  8.5953187294163569E-02  1.2174107855875362E-06
  3.2187784692317957E-02  8.5769989393470317E-02  1.2060564026900108E-06
  3.2508461966562839E-02  8.5576819553099023E-02  1.1948056648960526E-06
  3.2832334052603544E-02  8.5352662702126839E-02  1.1836573206196596E-06
  3.3159432779394725E-02  8.5115573000901820E-02  1.1726100258655261E-06
  3.3489790292993371E-02  8.4865366555142069E-02  1.1616623796491218E-06
  3.3823439059717977E-02  8.4647090892589302E-02  1.1508129518395659E-06
  3.4160411869339345E-02  8.4435604245331738E-02  1.1400603070880573E-06
  3.4500741838302894E-02  8.4248677635477567E-02  1.1294030398509414E-06
  3.4844462412983293E-02  8.4096092359441182E-02  1.1188398251849216E-06
  3.5191607372971494E-02  8.3915943247363303E-02  1.1083694699051421E-06
  3.5542210834394336E-02  8.3723077818242259E-02  1.0979909458443112E-06
  3.5896307253267500E-02  8.3517012699887691E-02  1.0877033960738708E-06
  3.6253931428881579E-02  8.3316976792783631E-02  1.0775061171113811E-06
  3.6615118507222176E-02  8.3098958503797671E-02  1.0673985270913305E-06
  3.6979903984423766E-02  8.2899051199804175E-02  1.0573801308581337E-06
  3.7348323710258195E-02  8.2677043328146751E-02  1.0474504892113489E-06
  3.7720413891657957E-02  8.2500470709024706E-02  1.0376091951415219E-06
  3.8096211096274285E-02  8.2294227878720871E-02  1.0278558563945383E-06
  3.8475752256071021E-02  8.2099595187421159E-02  1.0181900805292184E-06
  3.8859074670954168E-02  8.1896783029122219E-02  1.0086114507132252E-06
  3.9246216012437447E-02  8.1702111839465227E-02  9.9911949053531282E-07
  3.9637214327344711E-02  8.1506939918377430E-02  9.8971363723915620E-07
  4.0032108041548838E-02  8.1304122919867092E-02  9.8039323917091061E-07
  4.0430935963748277E-02  8.1097759989927187E-02  9.7115757835581437E-07
  4.0833737289280893E-02  8.0899430720774837E-02  9.6200590681483944E-07
  4.1240551603975939E-02  8.0697765115408090E-02  9.5293748211519905E-07
  4.1651418888044557E-02  8.0506683729467649E-02  9.4395159292399493E-07
  4.2066379520008697E-02  8.0307587341700681E-02  9.3504757219851586E-07
  4.2485474280669427E-02  8.0106180568449883E-02  9.2622480011128889E-07
  4.2908744357114836E-02  7.9916765910702611E-02  9.1748270078186883E-07
  4.3336231346767562E-02  7.9736133259847297E-02  9.0882073762814929E-07
  4.3767977261473009E-02  7.9556651085733704E-02  9.0023841624076784E-07
  4.4204024531627945E-02  7.9365576026327836E-02  8.9173529731147096E-07
  4.4644416010350595E-02  7.9173252984863274E-02  8.8331100106097702E-07
  4.5089194977691899E-02  7.8965164415338268E-02  8.7496518727427098E-07
  4.5538405144889028E-02  7.8757410621495383E-02  8.6669751219323985E-07
  4.5992090658661187E-02  7.8546693924866351E-02  8.5850757613615364E-07
  4.6450296105548079E-02  7.8361980103074477E-02  8.5039488048883182E-07
  4.6913066516291783E-02  7.8166104150242263E-02  8.4235880509422409E-07
  4.7380447370262244E-02  7.7995852405917249E-02  8.3439860619442681E-07
  4.7852484599926699E-02  7.7805172567817424E-02  8.2651342938835281E-07
  4.8329224595363901E-02  7.7617217707708505E-02  8.1870233044005794E-07
  4.8810714208823006E-02  7.7457107436595382E-02  8.1096429763656180E-07
  4.9297000759328191E-02  7.7279955543506140E-02  8.0329826845202990E-07
  4.9788132037328875E-02  7.7082712879884552E-02  7.9570313637928135E-07
  5.0284156309396422E-02  7.6885581965279323E-02  7.8817776186016856E-07
  5.0785122322967675E-02  7.6686663571491315E-02  7.8072100347037852E-07
  5.1291079311135572E-02  7.6484119981507670E-02  7.7333177007526641E-07
  5.1802076997487602E-02  7.6271207858672377E-02  7.6600908193653846E-07
  5.2318165600992589E-02  7.6091606688338087E-02  7.5875212174804275E-07
  5.2839395840935832E-02  7.5909629660394634E-02  7.5156026088646676E-07
  5.3365818941903710E-02  7.5727628840292299E-02  7.4443305971121945E-07
  5.3897486638817896E-02  7.5541048170660000E-02  7.3737024824727919E-07
  5.4434451182019609E-02  7.5349037576522698E-02  7.3037169614727400E-07
  5.4976765342404560E-02  7.5154577055268693E-02  7.2343737973427951E-07
  5.5524482416609081E-02  7.4951014269430807E-02  7.1656735294851585E-07
  5.6077656232248071E-02  7.4772513063855336E-02  7.0976172895135389E-07
  5.6636341153204761E-02  7.4587177173303126E-02  7.0302066740816346E-07
  5.7200592084973488E-02  7.4420882591428469E-02  6.9634435379555872E-07
  5.7770464480055711E-02  7.4270162681566762E-02  6.8973296418957209E-07
  5.8346014343409497E-02  7.4102361850789278E-02  6.8318661898014992E-07
  5.8927298237953556E-02  7.3918783595583140E-02  6.7670533680039764E-07
  5.9514373290126085E-02  7.3722710291946922E-02  6.7028900329625399E-07
  6.0107297195498934E-02  7.3524071479876912E-02  6.6393735963618263E-07
  6.0706128224447611E-02  7.3330083489875866E-02  6.5765000859009926E-07
  6.1310925227877955E-02  7.3133034415328466E-02  6.5142643253339558E-07
  6.1921747643009853E-02  7.2952552136405405E-02  6.4526601700123154E-07
  6.2538655499218387E-02  7.2770393025356081E-02  6.3916807429228669E-07
  6.3161709423933302E-02  7.2590457046907073E-02  6.3313185999139889E-07
  6.3790970648597442E-02  7.2411781850850399E-02  6.2715657898607525E-07
  6.4426501014684112E-02  7.2226749901198886E-02  6.2124138815024372E-07
  6.5068362979774641E-02  7.2051198796344140E-02  6.1538540455583865E-07
  6.5716619623696751E-02  7.1877418510079880E-02  6.0958772369577795E-07
  6.6371334654723543E-02  7.1709717970188436E-02  6.0384744600870930E-07
  6.7032572415834532E-02  7.1527477184377089E-02  5.9816370329809238E-07
  6.7700397891039141E-02  7.1340291964999497E-02  5.9253567851141772E-07
  6.8374876711763122E-02  7.1171506958511960E-02  5.8696261653683664E-07
  6.9056075163298397E-02  7.0989700447640733E-02  5.8144382614947358E-07
  6.9744060191317417E-02  7.0788877856801782E-02  5.7597867552675021E-07
  7.0438899408452479E-02  7.0604863090744749E-02  5.7056658433319915E-07
  7.1140661100940208E-02  7.0434752332754286E-02  5.6520701650743271E-07
  7.1849414235332573E-02  7.0258626360935550E-02  5.5989947873306937E-07
  7.2565228465274759E-02  7.0084708021722633E-02  5.5464352296442977E-07
  7.3288174138350370E-02  6.9897317695057706E-02  5.4943874686006680E-07
  7.4018322302994918E-02  6.9735162396472969E-02  5.4428478685553906E-07
  7.4755744715478217E-02  6.9576501883787847E-02  5.3918130289076314E-07
  7.5500513846956427E-02  6.9395958379205966E-02  5.3412795900046151E-07
  7.6252702890594090E-02  6.9226034210659065E-02  5.2912440544769668E-07
  7.7012385768757324E-02  6.9045153273748217E-02  5.2417026576662498E-07
  7.7779637140278843E-02  6.8856418516339390E-02  5.1926513041089386E-07
  7.8554532407794808E-02  6.8663504380424151E-02  5.1440855630496533E-07
  7.9337147725155335E-02  6.8489842746057211E-02  5.0960007027582209E-07
  8.0127560004908671E-02  6.8309030340052451E-02  5.0483917432312150E-07
  8.0925846925859760E-02  6.8126718267316963E-02  5.0012535014275632E-07
  8.1732086940704163E-02  6.7966462986117498E-02  4.9545806282007748E-07
  8.2546359283738199E-02  6.7806728646674044E-02  4.9083676657073174E-07
  8.3368743978645909E-02  6.7641104831931642E-02  4.8626091559968429E-07
  8.4199321846363279E-02  6.7461820341972345E-02  4.8172998055045410E-07
  8.5038174513021064E-02  6.7278293784379051E-02  4.7724346712569427E-07
  8.5885384417966892E-02  6.7109354765165899E-02  4.7280093150972006E-07
  8.6741034821866875E-02  6.6941478487730507E-02  4.6840198955790418E-07
  8.7605209814888160E-02  6.6757560362718849E-02  4.6404631853004126E-07
  8.8477994324963241E-02  6.6590143010227545E-02  4.5973365239556117E-07
  8.9359474126136262E-02  6.6414342278765651E-02  4.5546377326681591E-07
  9.0249735846992210E-02  6.6241018637644478E-02  4.5123650123520741E-07
  9.1148866979171031E-02  6.6067552142732605E-02  4.4705168438019941E-07
  9.2056955885965699E-02  6.5890843450109302E-02  4.4290919051116783E-07
  9.2974091811006160E-02  6.5725432706495224E-02  4.3880890162354958E-07
  9.3900364887029950E-02  6.5556249500876865E-02  4.3475071082374974E-07
  9.4835866144740266E-02  6.5398518355370708E-02  4.3073451998618386E-07
  9.5780687521751812E-02  6.5235532047492314E-02  4.2676023689860630E-07
  9.6734921871626300E-02  6.5072585285655918E-02  4.2282777274784809E-07
  9.7698662972997771E-02  6.4911905303677811E-02  4.1893703985669767E-07
  9.8672005538788840E-02  6.4754437492702280E-02  4.1508794955339073E-07
  9.9655045225518338E-02  6.4579130240874597E-02  4.1128041050691477E-07
  1.0064787864270267E-01  6.4403832934633601E-02  4.0751432751302483E-07
  1.0165060336234992E-01  6.4228301904161664E-02  4.0378960056984620E-07
  1.0266331792854887E-01  6.4040030781422341E-02  4.0010612420742712E-07
  1.0368612186715348E-01  6.3835132016962642E-02  3.9646379012159404E-07
  1.0471911569556430E-01  6.3668582908746815E-02  3.9286250269473140E-07
  1.0576240093260647E-01  6.3498784675899589E-02  3.8930221653669391E-07
  1.0681608010850685E-01  6.3331884761245252E-02  3.8578299713439276E-07
  1.0788025677497037E-01  6.3195323564810266E-02  3.8230509544039237E-07
  1.0895503551535672E-01  6.3035072451683938E-02  3.7886901929586945E-07
  1.1004052195495799E-01  6.2884415660771562E-02  3.7547558384262545E-07
  1.1113682277137979E-01  6.2716748935823893E-02  3.7212592930367999E-07
  1.1224404570502480E-01  6.2557153629925283E-02  3.6882150459578073E-07
  1.1336229956968094E-01  6.2379922333230718E-02  3.6556402438128578E-07
  1.1449169426321544E-01  6.2212032802092108E-02  3.6235541169455934E-07
  1.1563234077837523E-01  6.2040547057979831E-02  3.5919773786911556E-07
  1.1678435121369460E-01  6.1871335757018989E-02  3.5609316756724230E-07
  1.1794783878451211E-01  6.1706514684821759E-02  3.5304390671472796E-07
  1.1912291783409691E-01  6.1547488709633925E-02  3.5005214946749220E-07
  1.2030970384488607E-01  6.1375367235886331E-02  3.4712002111282322E-07
  1.2150831344983326E-01  6.1221842655598921E-02  3.4424951588519460E-07
  1.2271886444387177E-01  6.1059567582464523E-02  3.4144243524026313E-07
  1.2394147579549047E-01  6.0897907552111052E-02  3.3870034254899112E-07
  1.2517626765842571E-01  6.0737649566584014E-02  3.3602453967179984E-07
  1.2642336138346946E-01  6.0582191208917190E-02  3.3341606787084448E-07
  1.2768287953039559E-01  6.0417055548578132E-02  3.3087573063969879E-07
  1.2895494588000417E-01  6.0262647164676837E-02  3.2840413114428942E-07
  1.3023968544628636E-01  6.0111956536000245E-02  3.2600171538279987E-07
  1.3153722448871047E-01  5.9939190215530035E-02  3.2366881484439208E-07
  1.3284769052463014E-01  5.9788989013200906E-02  3.2140569801826884E-07
  1.3417121234181598E-01  5.9629827514534460E-02  3.1921265370478959E-07
  1.3550792001111298E-01  5.9475939795660876E-02  3.1709012274596943E-07
  1.3685794489922301E-01  5.9324730251372151E-02  3.1503887936883653E-07
  1.3822141968161500E-01  5.9168019217725736E-02  3.1306024499848367E-07
  1.3959847835556385E-01  5.9017339931370157E-02  3.1115629380040610E-07
  1.4098925625331954E-01  5.8872441304685878E-02  3.0933000907012301E-07
  1.4239389005540651E-01  5.8711580287314574E-02  3.0758536205290512E-07
  1.4381251780405638E-01  5.8558179468288132E-02  3.0592730397322725E-07
  1.4524527891677444E-01  5.8396988793402341E-02  3.0436168504857102E-07
  1.4669231420004097E-01  5.8230561998143644E-02  3.0289512888284746E-07
  1.4815376586314863E-01  5.8081334674294278E-02  3.0153489460131011E-07
  1.4962977753217921E-01  5.7930113853807398E-02  3.0028874567651907E-07
  1.5112049426411817E-01  5.7766020065487332E-02  2.9916481839050733E-07
  1.5262606256111008E-01  5.7626246948541460E-02  2.9817148419823955E-07
  1.5414663038485668E-01  5.7479695230435113E-02  2.9731719584191026E-07
  1.5568234717115809E-01  5.7339006021355172E-02  2.9661030732233347E-07
  1.5723336384459841E-01  5.7201962048570573E-02  2.9605889488834177E-07
  1.5879983283337815E-01  5.7067255965311321E-02  2.9567061813659520E-07
  1.6038190808429478E-01  5.6933427849567619E-02  2.9545263738040535E-07
  1.6197974507787138E-01  5.6809937078712645E-02  2.9541160536360977E-07
  1.6359350084363697E-01  5.6687733901751955E-02  2.9555373438777525E-07
  1.6522333397555897E-01  5.6547187491423657E-02  2.9588492298959620E-07
  1.6686940464762912E-01  5.6428290284236168E-02  2.9641091731535300E-07
  1.6853187462960453E-01  5.6298877169801372E-02  2.9713747774526504E-07
  1.7021090730290611E-01  5.6172772428630467E-02  2.9807052776110911E-07
  1.7190666767667517E-01  5.6043262808559619E-02  2.9921625583083209E-07
  1.7361932240398956E-01  5.5911739918208393E-02  3.0058115499668949E-07
  1.7534903979824187E-01  5.5770561307695768E-02  3.0217200554318124E-07
  1.7709598984968092E-01  5.5649503918672093E-02  3.0399581365694359E-07
  1.7886034424211758E-01  5.5514297957110603E-02  3.0605970878946878E-07
  1.8064227636979671E-01  5.5398472526095331E-02  3.0837084029462493E-07
  1.8244196135443866E-01  5.5272530795510949E-02  3.1093630600491623E-07
  1.8425957606244919E-01  5.5142014259583844E-02  3.1376313184686179E-07
  1.8609529912230058E-01  5.5034511449565192E-02  3.1685830653886546E-07
  1.8794931094208772E-01  5.4918970751154816E-02  3.2022886088707119E-07
  1.8982179372725744E-01  5.4816918618994688E-02  3.2388197060678699E-07
  1.9171293149851432E-01  5.4709277031570039E-02  3.2782505661956919E-07
  1.9362291010990684E-01  5.4594110195804277E-02  3.3206584216710985E-07
  1.9555191726709178E-01  5.4488267045989289E-02  3.3661232379132190E-07
  1.9750014254578038E-01  5.4371920432722383E-02  3.4147263098315322E-07
  1.9946777741037156E-01  5.4253507229067341E-02  3.4665476998803941E-07
  2.0145501523276543E-01  5.4130584815175402E-02  3.5216624203182259E-07
  2.0346205131136860E-01  5.4017095370591878E-02  3.5801357947289593E-07
  2.0548908289028855E-01  5.3898478578940721E-02  3.6420186990605997E-07
  2.0753630917871529E-01  5.3774126650359508E-02  3.7073433833463164E-07
  2.0960393137050137E-01  5.3657072270828242E-02  3.7761204243736673E-07
  2.1169215266393349E-01  5.3545662537748527E-02  3.8483370125921799E-07
  2.1380117828170139E-01  5.3417479600943119E-02  3.9239563402846421E-07
  2.1593121549106792E-01  5.3308456362230645E-02  4.0029176838311269E-07
  2.1808247362423755E-01  5.3190759227615972E-02  4.0851369238391286E-07
  2.2025516409892834E-01  5.3070749703499190E-02  4.1705070896854651E-07
  2.2244950043915043E-01  5.2935404870706283E-02  4.2588989783691631E-07
  2.2466569829618996E-01  5.2820075690402903E-02  4.3501623955025045E-07
  2.2690397546980157E-01  5.2696957383850149E-02  4.4441278073332377E-07
  2.2916455192961444E-01  5.2580596254135095E-02  4.5406081577624013E-07
  2.3144764983674940E-01  5.2456631985426896E-02  4.6394009956837038E-07
  2.3375349356565134E-01  5.2338961872080293E-02  4.7402904734478185E-07
  2.3608230972614144E-01  5.2217886268680680E-02  4.8430486858187229E-07
  2.3843432718568675E-01  5.2094953282280171E-02  4.9474359414652469E-07
  2.4080977709189147E-01  5.1976586367764012E-02  5.0531998682787150E-07
  2.4320889289521602E-01  5.1846488174358260E-02  5.1600736624167613E-07
  2.4563191037191640E-01  5.1733594831960432E-02  5.2677739034890030E-07
  2.4807906764721704E-01  5.1609179973016985E-02  5.3759987800162040E-07
  2.5055060521871414E-01  5.1481661795272353E-02  5.4844274449686292E-07
  2.5304676598000797E-01  5.1356064191631988E-02  5.5927209114385644E-07
  2.5556779524457590E-01  5.1228194903477749E-02  5.7005249338175626E-07
  2.5811394076988031E-01  5.1094478157893065E-02  5.8074754299514797E-07
