 #p(MeV) \t \delta f_\\nu \t \delta f_\\nubar
  5.2582843488703412E-01  9.9231019635848086E-02  1.4562957809617643E-06
  5.3106710635299148E-01  9.8983867708909656E-02  1.4394274403492827E-06
  5.3635796913632006E-01  9.8750745506522575E-02  1.4227154895831165E-06
  5.4170154320350972E-01  9.8539884683644691E-02  1.4061591566905602E-06
  5.4709835370131932E-01  9.8363675431029751E-02  1.3897576658314582E-06
  5.5254893100838909E-01  9.8145725760888120E-02  1.3735102395232894E-06
  5.5805381078736249E-01  9.7918776274661487E-02  1.3574160963215833E-06
  5.6361353403752945E-01  9.7641578473154952E-02  1.3414744592672668E-06
  5.6922864714799504E-01  9.7401793735293327E-02  1.3256845699922132E-06
  5.7489970195137430E-01  9.7158566403991578E-02  1.3100456585238428E-06
  5.8062725577802698E-01  9.6961741592987122E-02  1.2945568635062771E-06
  5.8641187151082763E-01  9.6747734237248306E-02  1.2792171506725007E-06
  5.9225411764048430E-01  9.6524016226832196E-02  1.2640253490038441E-06
  5.9815456832140934E-01  9.6287324163873950E-02  1.2489802742513895E-06
  6.0411380342814214E-01  9.6045243202768665E-02  1.2340807500811028E-06
  6.1013240861234042E-01  9.5792763067114012E-02  1.2193256081167699E-06
  6.1621097536033298E-01  9.5579170509959663E-02  1.2047136877725426E-06
  6.2235010105124999E-01  9.5345675356663134E-02  1.1902438349613161E-06
  6.2855038901573268E-01  9.5117583344822593E-02  1.1759149070873414E-06
  6.3481244859522334E-01  9.4903804399705555E-02  1.1617257752359667E-06
  6.4113689520185224E-01  9.4702494006884533E-02  1.1476752975693644E-06
  6.4752435037891576E-01  9.4470238461221254E-02  1.1337623019127542E-06
  6.5397544186196022E-01  9.4284365815958435E-02  1.1199856187056335E-06
  6.6049080364047474E-01  9.4067549945578116E-02  1.1063441499565074E-06
  6.6707107602019444E-01  9.3835624730577327E-02  1.0928369031183217E-06
  6.7371690568603049E-01  9.3602422544345878E-02  1.0794629217504272E-06
  6.8042894576562163E-01  9.3395853141752083E-02  1.0662212550250476E-06
  6.8720785589352185E-01  9.3169356211042276E-02  1.0531109571899619E-06
  6.9405430227602771E-01  9.2940142529428782E-02  1.0401310875394931E-06
  7.0096895775664902E-01  9.2729830873750224E-02  1.0272807110348049E-06
  7.0795250188223535E-01  9.2515746266112642E-02  1.0145588957027668E-06
  7.1500562096975728E-01  9.2296060009066205E-02  1.0019647046404681E-06
  7.2212900817375636E-01  9.2075467115080120E-02  9.8949721049568691E-07
  7.2932336355446648E-01  9.1850785221290032E-02  9.7715552921994511E-07
  7.3658939414661084E-01  9.1625507024213099E-02  9.6493883441495902E-07
  7.4392781402888986E-01  9.1392045507361436E-02  9.5284633753865002E-07
  7.5133934439415495E-01  9.1212439859252065E-02  9.4087725172687161E-07
  7.5882471362028692E-01  9.0986711541592491E-02  9.2903078126003263E-07
  7.6638465734177819E-01  9.0801302928137761E-02  9.1730612811372316E-07
  7.7401991852202678E-01  9.0597867250323344E-02  9.0570249261685979E-07
  7.8173124752635281E-01  9.0370470977556877E-02  8.9421907355617591E-07
  7.8951940219574279E-01  9.0139041599674383E-02  8.8285506806961606E-07
  7.9738514792132498E-01  8.9895613586754033E-02  8.7160967159500018E-07
  8.0532925771959218E-01  8.9676538302901121E-02  8.6048207952893836E-07
  8.1335251230836769E-01  8.9457754009677953E-02  8.4947148694734747E-07
  8.2145570018353442E-01  8.9242546464426045E-02  8.3857709098994182E-07
  8.2963961769652317E-01  8.9030803925210844E-02  8.2779811066793361E-07
  8.3790506913257556E-01  8.8844763549148525E-02  8.1713382354124141E-07
  8.4625286678978828E-01  8.8645578876989373E-02  8.0658359978344602E-07
  8.5468383105893941E-01  8.8459370701803111E-02  7.9614687222809388E-07
  8.6319879050411519E-01  8.8246563050409871E-02  7.8582307142761686E-07
  8.7179858194413917E-01  8.8031284341591520E-02  7.7561161667338339E-07
  8.8048405053480938E-01  8.7812271037155984E-02  7.6551191629696736E-07
  8.8925604985195961E-01  8.7597099339011247E-02  7.5552336802140989E-07
  8.9811544197534277E-01  8.7383388710459795E-02  7.4564535936424038E-07
  9.0706309757335657E-01  8.7165092055428300E-02  7.3587726887598203E-07
  9.1609989598860642E-01  8.6964474437893999E-02  7.2621846453725012E-07
  9.2522672532432448E-01  8.6760247847699784E-02  7.1666828336797800E-07
  9.3444448253165180E-01  8.6548971080272874E-02  7.0722598389976382E-07
  9.4375407349778417E-01  8.6338441748519817E-02  6.9789068445700551E-07
  9.5315641313500010E-01  8.6137887678261083E-02  6.8866131293177194E-07
  9.6265242547057728E-01  8.5949241637947760E-02  6.7953663605859206E-07
  9.7224304373759896E-01  8.5765894488932459E-02  6.7051539901914796E-07
  9.8192921046667270E-01  8.5572562375400021E-02  6.6159636753970440E-07
  9.9171187757855406E-01  8.5348228256440020E-02  6.5277832793596534E-07
  1.0015920064777031E+00  8.5110944390825533E-02  6.4406008672940893E-07
  1.0115705681467633E+00  8.4860524394288817E-02  6.3544047041786458E-07
  1.0216485432419877E+00  8.4642013340592501E-02  6.2691832569837206E-07
  1.0318269221896164E+00  8.4430265567461707E-02  6.1849252323299480E-07
  1.0421067052832076E+00  8.4243047888546099E-02  6.1016197871462564E-07
  1.0524889027819457E+00  8.4090136245677391E-02  6.0192569413231315E-07
  1.0629745350099271E+00  8.3909617633328423E-02  5.9378280267567311E-07
  1.0735646324564294E+00  8.3716330805012201E-02  5.8573259812592663E-07
  1.0842602358771891E+00  8.3509780730561034E-02  5.7777452360681812E-07
  1.0950623963966786E+00  8.3309181245004971E-02  5.6990807076476009E-07
  1.1059721756114114E+00  8.3090499509516871E-02  5.6213272180179333E-07
  1.1169906456942684E+00  8.2889800786541970E-02  5.5444794746829350E-07
  1.1281188894998673E+00  8.2666831558140086E-02  5.4685320750335175E-07
  1.1393580006709856E+00  8.2489068583743927E-02  5.3934795097414448E-07
  1.1507090837460334E+00  8.2281310903170909E-02  5.3193161592153231E-07
  1.1621732542676086E+00  8.2084687655794311E-02  5.2460362594303084E-07
  1.1737516388921267E+00  8.1879143022171905E-02  5.1736337360394140E-07
  1.1854453755005425E+00  8.1680490042583834E-02  5.1021019005202488E-07
  1.1972556133101808E+00  8.1478977825491961E-02  5.0314332093595713E-07
  1.2091835129876722E+00  8.1264490791157926E-02  4.9616192554544937E-07
  1.2212302467630249E+00  8.1029565384574467E-02  4.8926510104370262E-07
  1.2333969985448223E+00  8.0653587242303329E-02  4.8245192627224055E-07
  1.2456849640365741E+00  1.8094128771490895E-04  4.7572148935836961E-07
  1.2580953508542296E+00  6.8032417245033041E-05  4.6907288994412537E-07
  1.2706293786448521E+00  4.1422202576232499E-05  4.6250523894611475E-07
  1.2832882792064839E+00  2.9528339479827935E-05  4.5601765837122125E-07
  1.2960732966092052E+00  2.2789293313695284E-05  4.4960928156527326E-07
  1.3089856873173915E+00  1.8452440487475439E-05  4.4327925512731602E-07
  1.3220267203132001E+00  1.5428982744588031E-05  4.3702674836394491E-07
  1.3351976772212748E+00  1.3201805623793907E-05  4.3085097158083198E-07
  1.3484998524347060E+00  1.1493786134563408E-05  4.2475118553109188E-07
  1.3619345532422327E+00  1.0143033312877536E-05  4.1872668528341445E-07
  1.3755030999567210E+00  9.0486287128582274E-06  4.1277676003516618E-07
  1.3892068260449215E+00  8.1443867683719057E-06  4.0690066698964117E-07
  1.4030470782585129E+00  7.3850953542310068E-06  4.0109765736990668E-07
  1.4170252167664588E+00  6.7388178032271167E-06  3.9536698667448032E-07
  1.4311426152886806E+00  6.1823531520998074E-06  3.8970791482187042E-07
  1.4454006612310581E+00  5.6984401879090550E-06  3.8411970620040124E-07
  1.4598007558217847E+00  5.2739708228249864E-06  3.7860162952905804E-07
  1.4743443142490673E+00  4.8988118090479026E-06  3.7315295701577684E-07
  1.4890327658002129E+00  4.5650060932407339E-06  3.6777295998275923E-07
  1.5038675540020889E+00  4.2662183624021215E-06  3.6246089949136938E-07
  1.5188501367629887E+00  3.9973419020348203E-06  3.5721602452556202E-07
  1.5339819865159123E+00  3.7542146016753901E-06  3.5203759350278216E-07
  1.5492645903632676E+00  3.5334106131881618E-06  3.4692492004138602E-07
  1.5646994502230187E+00  3.3320860125831728E-06  3.4187741023313376E-07
  1.5802880829762920E+00  3.1478600583501686E-06  3.3689450999043715E-07
  1.5960320206164440E+00  2.9787234652292561E-06  3.3197566548820505E-07
  1.6119328103996238E+00  2.8229686131513028E-06  3.2712032179678979E-07
  1.6279920149968317E+00  2.6791349789995179E-06  3.2232792300103882E-07
  1.6442112126474919E+00  2.5459660027776872E-06  3.1759791237862847E-07
  1.6605919973145553E+00  2.4223746869997324E-06  3.1292973283051386E-07
  1.6771359788411482E+00  2.3074159353072947E-06  3.0832282901003495E-07
  1.6938447831087855E+00  2.2002641438856602E-06  3.0377665406914184E-07
  1.7107200521971508E+00  2.1001949164539673E-06  2.9929067607455440E-07
  1.7277634445454764E+00  2.0065700217589987E-06  2.9486437164791070E-07
  1.7449766351155316E+00  1.9188248640488998E-06  2.9049720072024225E-07
  1.7623613155562268E+00  1.8364577070988254E-06  2.8618857187273436E-07
  1.7799191943698638E+00  1.7590209823136096E-06  2.8193785492269453E-07
  1.7976519970800440E+00  1.6861147295338139E-06  2.7774441875219309E-07
  1.8155614664012447E+00  1.6173805252011108E-06  2.7360763555364643E-07
  1.8336493624100847E+00  1.5524962392667711E-06  2.6952688090988297E-07
  1.8519174627182997E+00  1.4911715664124989E-06  2.6550153386067700E-07
  1.8703675626474423E+00  1.4331442012966828E-06  2.6153097687606207E-07
  1.8890014754053142E+00  1.3781765513789477E-06  2.5761459515490478E-07
  1.9078210322641638E+00  1.3260528965390563E-06  2.5375177184310232E-07
  1.9268280827406612E+00  1.2765769195580571E-06  2.4994187732236005E-07
  1.9460244947776548E+00  1.2295695515490845E-06  2.4618425917317942E-07
  1.9654121549277475E+00  1.1848670920158945E-06  2.4247824116809910E-07
  1.9849929685387062E+00  1.1423195849552774E-06  2.3882313442938276E-07
  2.0047688599407065E+00  1.1017894561754591E-06  2.3521825403928949E-07
  2.0247417726354473E+00  1.0631503015796057E-06  2.3166292542127937E-07
  2.0449136694871557E+00  1.0262857835944666E-06  2.2815648435526182E-07
  2.0652865329154904E+00  9.9108865522350251E-07  2.2469827677280487E-07
  2.0858623650903607E+00  9.5745989534793344E-07  2.2128765855953352E-07
  2.1066431881286962E+00  9.2530794078967427E-07  2.1792399541363223E-07
  2.1276310442931767E+00  8.9454800283667779E-07  2.1460666283195947E-07
  2.1488279961929315E+00  8.6510145958781681E-07  2.1133504785216456E-07
  2.1702361269862460E+00  8.3689531994008994E-07  2.0810855580024227E-07
  2.1918575405852931E+00  8.0986175230434119E-07  2.0492661978666077E-07
  2.2136943618628915E+00  7.8393766780074733E-07  2.0178870645677308E-07
  2.2357487368613316E+00  7.5906434699441870E-07  1.9869431344460793E-07
  2.2580228330032819E+00  7.3518707860855251E-07  1.9564295779051439E-07
  2.2805188393047966E+00  7.1225477236478394E-07  1.9263416246389618E-07
  2.3032389665904400E+00  6.9021964151700389E-07  1.8966745276284629E-07
  2.3261854477105604E+00  6.6903694183709347E-07  1.8674235631409947E-07
  2.3493605377607292E+00  6.4866473552716812E-07  1.8385840314119855E-07
  2.3727665143033581E+00  6.2906367670786955E-07  1.8101512570344785E-07
  2.3964056775915319E+00  6.1019681625813434E-07  1.7821205894937484E-07
  2.4202803507950703E+00  5.9202942389809941E-07  1.7544874030434466E-07
  2.4443928802288415E+00  5.7452882401960343E-07  1.7272470818079514E-07
  2.4687456355833421E+00  5.5766424417657680E-07  1.7003949981876726E-07
  2.4933410101575890E+00  5.4140668070805041E-07  1.6739265245145295E-07
  2.5181814210943227E+00  5.2572879302091160E-07  1.6478371063515306E-07
  2.5432693096175534E+00  5.1060484692038360E-07  1.6221223756752778E-07
  2.5686071412724734E+00  4.9601060006550509E-07  1.5967781071512195E-07
  2.5941974061677695E+00  4.8192313264806760E-07  1.5718001035784050E-07
  2.6200426192203334E+00  4.6832075258537989E-07  1.5471841857863304E-07
  2.6461453204024208E+00  4.5518291556930722E-07  1.5229261933055598E-07
  2.6725080749912742E+00  4.4249015127990109E-07  1.4990219850733252E-07
  2.6991334738212287E+00  4.3022399520842562E-07  1.4754674401016873E-07
  2.7260241335383180E+00  4.1836692531892762E-07  1.4522584555032173E-07
  2.7531826968574458E+00  4.0690230345001125E-07  1.4293909451943414E-07
  2.7806118328220939E+00  3.9581432214560190E-07  1.4068608479487452E-07
  2.8083142370666221E+00  3.8508795708277308E-07  1.3846641444409346E-07
  2.8362926320811903E+00  3.7470892527314998E-07  1.3627968769504104E-07
  2.8645497674793186E+00  3.6466365004896977E-07  1.3412551641006536E-07
  2.8930884202680982E+00  3.5493922075182359E-07  1.3200351857168791E-07
  2.9219113951211133E+00  3.4552333797081455E-07  1.2991331441915048E-07
  2.9510215246540743E+00  3.3640427486220454E-07  1.2785452576913712E-07
  2.9804216697031967E+00  3.2757084494930297E-07  1.2582677609290105E-07
  3.0101147196063436E+00  3.1901237207945754E-07  1.2382969059693102E-07
  3.0401035924869944E+00  3.1071866236837620E-07  1.2186289631026373E-07
  3.0703912355410212E+00  3.0267997800274590E-07  1.1992602219905363E-07
  3.1009806253263221E+00  2.9488701260602087E-07  1.1801869915274088E-07
  3.1318747680553520E+00  2.8733087159841660E-07  1.1614056264828884E-07
  3.1630766998905675E+00  2.8000307309468896E-07  1.1429126803022381E-07
  3.1945894872427973E+00  2.7289560027441505E-07  1.1247052803969170E-07
  3.2264162270726064E+00  2.6600106924056137E-07  1.1067817309962770E-07
  3.2585600471946528E+00  2.5931292126344675E-07  1.0891418007344584E-07
  3.2910241065850796E+00  2.5282503201442365E-07  1.0717856059648105E-07
  3.3238115956919549E+00  2.4653146723180348E-07  1.0547130661918945E-07
  3.3569257367488365E+00  2.4042647128066691E-07  1.0379239017585328E-07
  3.3903697840914306E+00  2.3450446164490603E-07  1.0214176433395250E-07
  3.4241470244774113E+00  2.2876002364025179E-07  1.0051936412055825E-07
  3.4582607774094400E+00  2.2318790533291214E-07  9.8925107425861681E-08
  3.4927143954613933E+00  2.1778301267314693E-07  9.7358895907488754E-08
  3.5275112646078335E+00  2.1254040383731703E-07  9.5820615082013172E-08
  3.5626548045567774E+00  2.0745527607104745E-07  9.4310128771686524E-08
  3.5981484690857712E+00  2.0252293038709755E-07  9.2827261130743872E-08
  3.6339957463813173E+00  1.9773868748686916E-07  9.1371763374566353E-08
  3.6702001593816660E+00  1.9309774259397954E-07  8.9943279527082934E-08
  3.7067652661230586E+00  1.8859527043159566E-07  8.8541395319037476E-08
  3.7436946600893855E+00  1.8422661814455191E-07  8.7165696654331824E-08
  3.7809919705653403E+00  1.7998731297192536E-07  8.5815773894529211E-08
  3.8186608629930934E+00  1.7587305427425560E-07  8.4491221928314513E-08
  3.8567050393325246E+00  1.7187970597754841E-07  8.3191640242141175E-08
  3.8951282384250301E+00  1.6800328939174262E-07  8.1916632975225435E-08
  3.9339342363609622E+00  1.6423997597167931E-07  8.0665808575727786E-08
  3.9731268468507377E+00  1.6058608124464859E-07  7.9438780147292740E-08
  4.0127099215996305E+00  1.5703807601757640E-07  7.8235179365552487E-08
  4.0526873506862930E+00  1.5359265621144405E-07  7.7054708789063055E-08
  4.0930630629450757E+00  1.5024694220972521E-07  7.5897250633162146E-08
  4.1338410263521341E+00  1.4699891326710801E-07  7.4763020490332734E-08
  4.1750252484153760E+00  1.4384742363249854E-07  7.3652516541904703E-08
  4.2166197765683133E+00  1.4079141838330474E-07  7.2566242632489395E-08
  4.2586286985678345E+00  1.3782978030749210E-07  7.1504659748690488E-08
  4.3010561428959209E+00  1.3496133941039096E-07  7.0468188911717664E-08
  4.3439062791653837E+00  1.3218488214949521E-07  6.9457214152205210E-08
  4.3871833185296474E+00  1.2949916023458687E-07  6.8472085503008130E-08
  4.4308915140965981E+00  1.2690289909044434E-07  6.7513122083700020E-08
  4.4750351613465531E+00  1.2439480605771707E-07  6.6580615338653221E-08
  4.5196185985544268E+00  1.2197357164445777E-07  6.5674826761179648E-08
  4.5646462072160690E+00  1.1963783948165594E-07  6.4795962768880845E-08
  4.6101224124788560E+00  1.1738610129981258E-07  6.3944108107854361E-08
  4.6560516835765871E+00  1.1521644085306807E-07  6.3119110543501721E-08
  4.7024385342687047E+00  1.1312631441867662E-07  6.2320528832470136E-08
  4.7492875232838845E+00  1.1111305129026454E-07  6.1547848266071903E-08
  4.7966032547680477E+00  1.0917410170704660E-07  6.0800574104945019E-08
  4.8443903787368567E+00  1.0730703570441194E-07  6.0078232741424957E-08
  4.8926535915326790E+00  1.0550953795490218E-07  5.9380371391815070E-08
  4.9413976362861369E+00  1.0377940289809855E-07  5.8706557808235204E-08
  4.9906273033822517E+00  1.0211453032401713E-07  5.8056380181981961E-08
  5.0403474309312166E+00  1.0051292199468402E-07  5.7429447797213630E-08
  5.0905629052438659E+00  9.8972676407936677E-08  5.6825389818750394E-08
  5.1412786613118877E+00  9.7491968962011330E-08  5.6243842098757470E-08
  5.1924996832928230E+00  9.6068992619224477E-08  5.5684407853089383E-08
  5.2442310049998788E+00  9.4701815027737021E-08  5.5146580783501700E-08
  5.2964777103966334E+00  9.3388154266530780E-08  5.4629659191181895E-08
  5.3492449340966859E+00  9.2125566540688925E-08  5.4132849925175893E-08
  5.4025378618682520E+00  9.0911714672266223E-08  5.3655384304864790E-08
  5.4563617311437929E+00  8.9744377744171943E-08  5.3196523222724594E-08
  5.5107218315347568E+00  8.8621443428287627E-08  5.2755555225135613E-08
  5.5656235053514127E+00  8.7540900847655990E-08  5.2331794705222693E-08
  5.6210721481278503E+00  8.6500833910856527E-08  5.1924580180156869E-08
  5.6770732091522689E+00  8.5499415271749676E-08  5.1533272826114525E-08
  5.7336321920024966E+00  8.4534900190116098E-08  5.1157254658044108E-08
  5.7907546550868467E+00  8.3605607789805275E-08  5.0795915803329194E-08
  5.8484462121904075E+00  8.2709854034947869E-08  5.0448605815017504E-08
  5.9067125330267309E+00  8.1845768209479264E-08  5.0114518280141802E-08
  5.9655593437950039E+00  8.1010898985252813E-08  4.9792499032516553E-08
  6.0249924277428688E+00  8.0202208050364836E-08  4.9481082988143757E-08
  6.0850176257346966E+00  7.9416664185874565E-08  4.9178782943584423E-08
  6.1456408368256428E+00  7.8651340470745016E-08  4.8884134581133806E-08
  6.2068680188414245E+00  7.7903407026261979E-08  4.8595694320034785E-08
  6.2687051889637502E+00  7.7170124902421711E-08  4.8312037654349857E-08
  6.3311584243217363E+00  7.6448841068300850E-08  4.8031757976778557E-08
  6.3942338625891182E+00  7.5736984440532366E-08  4.7753465873587083E-08
  6.4579377025874205E+00  7.5032062888822078E-08  4.7475788872704868E-08
  6.5222762048951957E+00  7.4331664241639288E-08  4.7197374328691641E-08
  6.5872556924632635E+00  7.3633474903492796E-08  4.6916906168001877E-08
  6.6528825512360950E+00  7.2935345804555388E-08  4.6633153142178971E-08
  6.7191632307794347E+00  7.2235463033554400E-08  4.6345068384724877E-08
  6.7861042449141262E+00  7.1532489124752689E-08  4.6051848811282921E-08
  6.8537121723562375E+00  7.0825267151414382E-08  4.5752774001081019E-08
  6.9219936573636405E+00  7.0112690449153369E-08  4.5447141769438640E-08
  6.9909554103889615E+00  6.9393702417874040E-08  4.5134268993297013E-08
  7.0606042087390364E+00  6.8667298067979209E-08  4.4813493305496389E-08
  7.1309468972410066E+00  6.7932525692232582E-08  4.4484174873388721E-08
  7.2019903889149788E+00  6.7188488628441328E-08  4.4145698238768940E-08
  7.2737416656533833E+00  6.6434346639098319E-08  4.3797473778150779E-08
  7.3462077789072078E+00  6.5669319579360646E-08  4.3438941243323291E-08
  7.4193958503788924E+00  6.4892706813082970E-08  4.3069586696717615E-08
  7.4933130727222723E+00  6.4103955153165075E-08  4.2688995470325037E-08
  7.5679667102494825E+00  6.3302845170665891E-08  4.2296974795273732E-08
  7.6433640996447787E+00  6.2489788371981200E-08  4.1893711147222520E-08
  7.7195126506856360E+00  6.1665551975140834E-08  4.1479596254705443E-08
  7.7964198469709283E+00  6.0830923991469637E-08  4.1055042622672302E-08
