 #p(MeV) \t \delta f_\\nu \t \delta f_\\nubar
  6.6101262866012811E-01  4.2638595680035287E-05  8.9122312201575794E-07
  6.6759809982648521E-01  3.5762195125252816E-05  8.7887025650264858E-07
  6.7424918007291479E-01  3.0650318341319363E-05  8.6666191576674885E-07
  6.8096652304306415E-01  2.6704537598264405E-05  8.5459689798332913E-07
  6.8775078889263552E-01  2.3569412320417512E-05  8.4267400459798560E-07
  6.9460264435426633E-01  2.1020529053119729E-05  8.3089204258069487E-07
  7.0152276280305070E-01  1.8909226462824203E-05  8.1924982213268413E-07
  7.0851182432271764E-01  1.7133125396722587E-05  8.0774616515743047E-07
  7.1557051577246811E-01  1.5619423090796864E-05  7.9637991938724378E-07
  7.2269953085447436E-01  1.4314935166321326E-05  7.8514992995758035E-07
  7.2989957018205742E-01  1.3179905533794508E-05  7.7405500824640991E-07
  7.3717134134853823E-01  1.2184023047013441E-05  7.6309396020439948E-07
  7.4451555899677835E-01  1.1303776086094746E-05  7.5226559480639972E-07
  7.5193294488941376E-01  1.0520648516627353E-05  7.4156872419759814E-07
  7.5942422797978415E-01  9.8198609423216275E-06  7.3100216382293484E-07
  7.6699014448357516E-01  9.1894742025968178E-06  7.2056473255347102E-07
  7.7463143795116751E-01  8.6197390738646051E-06  7.1025525261996278E-07
  7.8234885934071219E-01  8.1026167537215580E-06  7.0007254842244596E-07
  7.9014316709193322E-01  7.6314200120150972E-06  6.9001545162392351E-07
  7.9801512720066092E-01  7.2005410063487343E-06  6.8008280344146123E-07
  8.0596551329411459E-01  6.8052422288638033E-06  6.7027342814305595E-07
  8.1399510670692909E-01  6.4414941319640311E-06  6.6058611568190081E-07
  8.2210469655794260E-01  6.1058479639927994E-06  6.5101964623404749E-07
  8.3029507982774975E-01  5.7953350786119608E-06  6.4157280836282102E-07
  8.3856706143702231E-01  5.5073863485633913E-06  6.3224439893615349E-07
  8.4692145432561827E-01  5.2397673094623234E-06  6.2303322305218414E-07
  8.5535907953247092E-01  4.9905255324548006E-06  6.1393809402492212E-07
  8.6388076627627863E-01  4.7579476166526920E-06  6.0495783336952655E-07
  8.7248735203699945E-01  4.5405238113009915E-06  5.9609127082605807E-07
  8.8117968263815194E-01  4.3369187351480332E-06  5.8733724503134644E-07
  8.8995861232994289E-01  4.1459469975393369E-06  5.7869460096803834E-07
  8.9882500387321773E-01  3.9665527857345406E-06  5.7016218201792384E-07
  9.0777972862424972E-01  3.7977927292435818E-06  5.6173884448986281E-07
  9.1682366662037584E-01  3.6388215145057652E-06  5.5342349141822733E-07
  9.2595770666647959E-01  3.4888797985973462E-06  5.4521508426760658E-07
  9.3518274642234422E-01  3.3472835303808962E-06  5.3711261041572283E-07
  9.4449969249086707E-01  3.2134146386543778E-06  5.2911506079084517E-07
  9.5390946050715941E-01  3.0867132854435046E-06  5.2122142877749302E-07
  9.6341297522853264E-01  2.9666712026276767E-06  5.1343071034932956E-07
  9.7301117062537734E-01  2.8528259215340279E-06  5.0574190420022604E-07
  9.8270498997295164E-01  2.7447557590265825E-06  4.9815401186711852E-07
  9.9249538594408460E-01  2.6420754467283735E-06  4.9066603764030742E-07
  1.0023833207027977E+00  2.5444323094529906E-06  4.8327698852748622E-07
  1.0123697659988673E+00  2.4515029159645417E-06  4.7598587592649812E-07
  1.0224557032633199E+00  2.3629901316246050E-06  4.6879171535821519E-07
  1.0326421237048875E+00  2.2786205310221611E-06  4.6169352886186988E-07
  1.0429300284074177E+00  2.1981422234120973E-06  4.5469036333613597E-07
  1.0533204284282560E+00  2.1213229143185880E-06  4.4778129551527877E-07
  1.0638143448976125E+00  2.0479478575966193E-06  4.4096540759723634E-07
  1.0744128091189102E+00  1.9778181939376373E-06  4.3424178265533839E-07
  1.0851168626701400E+00  1.9107495218412250E-06  4.2760950482972849E-07
  1.0959275575062233E+00  1.8465706197696411E-06  4.2106765951847440E-07
  1.1068459560623936E+00  1.7851223011323205E-06  4.1461533356681873E-07
  1.1178731313586099E+00  1.7262563863275918E-06  4.0825161550018423E-07
  1.1290101671050059E+00  1.6698347781501379E-06  4.0197559580495914E-07
  1.1402581578083981E+00  1.6157286296136138E-06  3.9578636804109749E-07
  1.1516182088798452E+00  1.5638175883308964E-06  3.8968302710960585E-07
  1.1630914367432863E+00  1.5139890710930111E-06  3.8366464872878885E-07
  1.1746789689452586E+00  1.4661374468726654E-06  3.7773024228381095E-07
  1.1863819442657084E+00  1.4201631907550514E-06  3.7187872775088095E-07
  1.1982015128299048E+00  1.3759728028927366E-06  3.6610900966324617E-07
  1.2101388362214733E+00  1.3334785804003421E-06  3.6042000725608513E-07
  1.2221950875965475E+00  1.2925981869038603E-06  3.5481065464272270E-07
  1.2343714517990669E+00  1.2532542562783653E-06  3.4927990058652508E-07
  1.2466691254772144E+00  1.2153740307045015E-06  3.4382670827628473E-07
  1.2590893172010234E+00  1.1788890296262220E-06  3.3845005509390081E-07
  1.2716332475811476E+00  1.1437347467535641E-06  3.3314893253438857E-07
  1.2843021493888196E+00  1.1098503727709873E-06  3.2792234657630033E-07
  1.2970972676770047E+00  1.0771785460444442E-06  3.2276932159329348E-07
  1.3100198599027570E+00  1.0456651563421884E-06  3.1768892156382339E-07
  1.3230711960507990E+00  1.0152592530897782E-06  3.1268029146849584E-07
  1.3362525587583338E+00  9.8591308018042942E-07  3.0774268836821098E-07
  1.3495652434410921E+00  9.5758169294790295E-07  3.0287542065912423E-07
  1.3630105584206471E+00  9.3022250129260424E-07  2.9807779666665647E-07
  1.3765898250529858E+00  9.0379510436713844E-07  2.9334912230264970E-07
  1.3903043778583728E+00  8.7826115434634270E-07  2.8868870139005489E-07
  1.4041555646524968E+00  8.5358423021143101E-07  2.8409583597993622E-07
  1.4181447466789312E+00  8.2972972070062520E-07  2.7956982666116894E-07
  1.4322732987429143E+00  8.0666471555923355E-07  2.7510997276712924E-07
  1.4465426093464555E+00  7.8435790374142608E-07  2.7071557188676060E-07
  1.4609540808247947E+00  7.6277947468069993E-07  2.6638591631133850E-07
  1.4755091294842211E+00  7.4190100495486594E-07  2.6212027630770977E-07
  1.4902091857412560E+00  7.2169530813758900E-07  2.5791786959369161E-07
  1.5050556942632369E+00  7.0213624248120184E-07  2.5377783944727044E-07
  1.5200501141102862E+00  6.8319868349902508E-07  2.4969928715107068E-07
  1.5351939188787092E+00  6.6485866195540578E-07  2.4568132189795857E-07
  1.5504885968458086E+00  6.4709332884881559E-07  2.4172306680705858E-07
  1.5659356511161482E+00  6.2988089310588254E-07  2.3782365866813988E-07
  1.5815365997692765E+00  6.1320056331443201E-07  2.3398224769079344E-07
  1.5972929760089116E+00  5.9703249319967297E-07  2.3019799725946083E-07
  1.6132063283136211E+00  5.8135773061899202E-07  2.2647008374341101E-07
  1.6292782205890055E+00  5.6615817022574568E-07  2.2279769673869560E-07
  1.6455102323213844E+00  5.5141651112008195E-07  2.1918004097471778E-07
  1.6619039587330320E+00  5.3711622793390868E-07  2.1561634575997985E-07
  1.6784610109389404E+00  5.2324156431304604E-07  2.1210588326404146E-07
  1.6951830161051631E+00  5.0977753370602674E-07  2.0864797788362093E-07
  1.7120716176087187E+00  4.9670986854304378E-07  2.0524198886444492E-07
  1.7291284751991010E+00  4.8402491163067393E-07  2.0188728423877481E-07
  1.7463552651613932E+00  4.7170956665044295E-07  1.9858323560247958E-07
  1.7637536804810034E+00  4.5975127055438928E-07  1.9532921818563599E-07
  1.7813254310100475E+00  4.4813796769327643E-07  1.9212461095323483E-07
  1.7990722436353881E+00  4.3685808541892608E-07  1.8896879670148715E-07
  1.8169958624483431E+00  4.2590051104849176E-07  1.8586116213471702E-07
  1.8350980489160940E+00  4.1525456992304644E-07  1.8280109775242533E-07
  1.8533805820547888E+00  4.0491000387588570E-07  1.7978799703303959E-07
  1.8718452586043854E+00  3.9485694628851061E-07  1.7682125208381648E-07
  1.8904938932052224E+00  3.8508588953155159E-07  1.7390024428959892E-07
  1.9093283185763568E+00  3.7558766065017791E-07  1.7102434251285617E-07
  1.9283503856956805E+00  3.6635343802167258E-07  1.6819291986732688E-07
  1.9475619639818225E+00  3.5737474979915504E-07  1.6540536100749098E-07
  1.9669649414778696E+00  3.4864344366140729E-07  1.6266105791322711E-07
  1.9865612250369209E+00  3.4015167166914217E-07  1.5995940953444323E-07
  2.0063527405094796E+00  3.3189187693479606E-07  1.5729982173343508E-07
  2.0263414329327221E+00  3.2385678097145606E-07  1.5468170722773564E-07
  2.0465292667216488E+00  3.1603937168337481E-07  1.5210448553552388E-07
  2.0669182258621421E+00  3.0843289201935055E-07  1.4956758298006778E-07
  2.0875103141059386E+00  3.0103082946765158E-07  1.4707043294609436E-07
  2.1083075551675541E+00  2.9382690812602975E-07  1.4461247783486403E-07
  2.1293119929231716E+00  2.8681508782348224E-07  1.4219317563646432E-07
  2.1505256916114970E+00  2.7998956641726026E-07  1.3981200617230532E-07
  2.1719507360366297E+00  2.7334476452798391E-07  1.3746846525208909E-07
  2.1935892317729517E+00  2.6687529523888129E-07  1.3516205314209312E-07
  2.2154433053720504E+00  2.6057595548235547E-07  1.3289227356698202E-07
  2.2375151045717105E+00  2.5444171964539044E-07  1.3065863408330559E-07
  2.2598067985069878E+00  2.4846773250270583E-07  1.2846064613535771E-07
  2.2823205779233828E+00  2.4264930247868810E-07  1.2629782510778445E-07
  2.3050586553921355E+00  2.3698189522047771E-07  1.2416969037502203E-07
  2.3280232655276718E+00  2.3146112745506445E-07  1.2207576533737283E-07
  2.3512166652072168E+00  2.2608276103076438E-07  1.2001557736398957E-07
  2.3746411337925846E+00  2.2084269644882881E-07  1.1798865706129028E-07
  2.3982989733541888E+00  2.1573696146160200E-07  1.1599453346119861E-07
  2.4221925088972878E+00  2.1076168968280655E-07  1.1403272328011410E-07
  2.4463240885904667E+00  2.0591309239110491E-07  1.1210272106113140E-07
  2.4706960839964114E+00  2.0118745573950415E-07  1.1020400540746596E-07
  2.4953108903049834E+00  1.9658118125130528E-07  1.0833605951537372E-07
  2.5201709265686016E+00  1.9209079320392439E-07  1.0649837585386571E-07
  2.5452786359399791E+00  1.8771293386149855E-07  1.0469045600369131E-07
  2.5706364859122299E+00  1.8344435885556721E-07  1.0291181047562374E-07
  2.5962469685613669E+00  1.7928193277173367E-07  1.0116195853265479E-07
  2.6221126007912074E+00  1.7522262493296679E-07  9.9440428016992209E-08
  2.6482359245807285E+00  1.7126350542210147E-07  9.7746755232397935E-08
  2.6746195072338890E+00  1.6740174142022013E-07  9.6080484953388793E-08
  2.7012659416319247E+00  1.6363459581436819E-07  9.4441172189709778E-08
  2.7281778464881707E+00  1.5995943299673354E-07  9.2828388955525209E-08
  2.7553578666054248E+00  1.5637373274280150E-07  9.1241733773284702E-08
  2.7828086731358623E+00  1.5287509851815354E-07  8.9680833917012345E-08
  2.8105329638435474E+00  1.4946122434813447E-07  8.8145328922706207E-08
  2.8385334633695609E+00  1.4612987291457918E-07  8.6634861871751202E-08
  2.8668129234997721E+00  1.4287887261755884E-07  8.5149079144765844E-08
  2.8953741234352650E+00  1.3970611537413169E-07  8.3687630442114401E-08
  2.9242198700654738E+00  1.3660955450243821E-07  8.2250168802516918E-08
  2.9533529982440374E+00  1.3358720268755251E-07  8.0836350620028510E-08
  2.9827763710673887E+00  1.3063712999772561E-07  7.9445835632469648E-08
  3.0124928801561341E+00  1.2775746199335220E-07  7.8078286925049193E-08
  3.0425054459392360E+00  1.2494637781900156E-07  7.6733370868826452E-08
  3.0728170179410164E+00  1.2220210654829021E-07  7.5410755582480746E-08
  3.1034305750710218E+00  1.1952292225613274E-07  7.4110108725098506E-08
  3.1343491259167857E+00  1.1690714311108937E-07  7.2831098395028278E-08
  3.1655757090395031E+00  1.1435313460700192E-07  7.1573396197491220E-08
  3.1971133932726419E+00  1.1185930898303293E-07  7.0336677835057261E-08
  3.2289652780235389E+00  1.0942412364846853E-07  6.9120623050977033E-08
  3.2611344935780058E+00  1.0704607973522515E-07  6.7924915602580553E-08
  3.2936242014079493E+00  1.0472372070319657E-07  6.6749243234209354E-08
  3.3264375944820763E+00  1.0245563099578477E-07  6.5593297649261225E-08
  3.3595778975796895E+00  1.0024043474947098E-07  6.4456774487176115E-08
  3.3930483676076055E+00  9.8076794547328847E-08  6.3339373298110664E-08
  3.4268522939202195E+00  9.5963409935712187E-08  6.2240797254828273E-08
  3.4609929986427890E+00  9.3899016047493142E-08  6.1160752933848095E-08
  3.4954738369979137E+00  9.1882383418793300E-08  6.0098951033074620E-08
  3.5302981976352670E+00  8.9912319419572963E-08  5.9055107940784591E-08
  3.5654695029646271E+00  8.7987668142221272E-08  5.8028946035225485E-08
  3.6009912094922223E+00  8.6107305820939528E-08  5.7020191647833650E-08
  3.6368668081604123E+00  8.4270138912415206E-08  5.6028574532859138E-08
  3.6730998246907745E+00  8.2475103192686554E-08  5.5053827845809480E-08
  3.7096938199305964E+00  8.0721162887614234E-08  5.4095688123021216E-08
  3.7466523902028270E+00  7.9007309832597755E-08  5.3153895260893232E-08
  3.7839791676594934E+00  7.7332562664865880E-08  5.2228192499086653E-08
  3.8216778206386768E+00  7.5695966052080973E-08  5.1318326412318673E-08
  3.8597520540250150E+00  7.4096589977622647E-08  5.0424046931388466E-08
  3.8982056096137976E+00  7.2533528924127982E-08  4.9545107237759484E-08
  3.9370422664787013E+00  7.1005904511136424E-08  4.8681266338195384E-08
  3.9762658413431926E+00  6.9512887073385448E-08  4.7832304169448913E-08
  4.0158801889556042E+00  6.8053732272301481E-08  4.6998042468419373E-08
  4.0558892024679745E+00  6.6627740172946356E-08  4.6178319648980978E-08
  4.0962968138186557E+00  6.5234222735532202E-08  4.5372972677248558E-08
  4.1371069941187280E+00  6.3872502880482344E-08  4.4581836756950638E-08
  4.1783237540422515E+00  6.2541914486015618E-08  4.3804745518905693E-08
  4.2199511442204454E+00  6.1241802376929698E-08  4.3041531204994661E-08
  4.2619932556397551E+00  5.9971522301889771E-08  4.2292024843633070E-08
  4.3044542200438931E+00  5.8730440888283636E-08  4.1556056405691734E-08
  4.3473382103399043E+00  5.7517935576170474E-08  4.0833454942452319E-08
  4.3906494410082617E+00  5.6333394556008645E-08  4.0124048730616744E-08
  4.4343921685170402E+00  5.5176215717669109E-08  3.9427664612012915E-08
  4.4785706917402370E+00  5.4045797916148180E-08  3.8744121697229726E-08
  4.5231893523802436E+00  5.2941516979599920E-08  3.8073216379980114E-08
  4.5682525353945440E+00  5.1862733994135694E-08  3.7414729014938476E-08
  4.6137646694266241E+00  5.0808823977059336E-08  3.6768441686606158E-08
  4.6597302272412344E+00  4.9779178144360397E-08  3.6134139779708121E-08
  4.7061537261639419E+00  4.8773203469539980E-08  3.5511611950913636E-08
  4.7530397285250743E+00  4.7790322255238638E-08  3.4900650100007152E-08
  4.8003928421080886E+00  4.6829971717743675E-08  3.4301049341003814E-08
  4.8482177206024204E+00  4.5891603590193646E-08  3.3712607979273646E-08
  4.8965190640608149E+00  4.4974683726130507E-08  3.3135127477674698E-08
  4.9453016193612340E+00  4.4078691293754657E-08  3.2568412028402454E-08
  4.9945701806733753E+00  4.3203118805766281E-08  3.2012268819583013E-08
  5.0443295899298128E+00  4.2347489117261953E-08  3.1466521876083725E-08
  5.0945847373018367E+00  4.1511425127265258E-08  3.0931061040616259E-08
  5.1453405616800616E+00  4.0694681034303024E-08  3.0405858673635167E-08
  5.1966020511597941E+00  3.9897030674652802E-08  2.9890896148362466E-08
  5.2483742435312370E+00  3.9118240754184872E-08  2.9386146966141208E-08
  5.3006622267745875E+00  3.8358071677253297E-08  2.8891577252954481E-08
  5.3534711395600807E+00  3.7616278389203520E-08  2.8407146276706941E-08
  5.4068061717529758E+00  3.6892611184592491E-08  2.7932806955253682E-08
  5.4606725649236072E+00  3.6186816484005802E-08  2.7468506356995417E-08
  5.5150756128625140E+00  3.5498637571013258E-08  2.7014186184859348E-08
  5.5700206621006902E+00  3.4827815375535038E-08  2.6569783323961640E-08
  5.6255131124350024E+00  3.4174089366017254E-08  2.6135230520221440E-08
  5.6815584174588958E+00  3.3537191847718954E-08  2.5710451526584900E-08
  5.7381620850983337E+00  3.2916811759147104E-08  2.5295333670135509E-08
  5.7953296781530925E+00  3.2312543227166596E-08  2.4889693915538154E-08
  5.8530668148434604E+00  3.1723951177851291E-08  2.4493325597366248E-08
  5.9113791693623803E+00  3.1150613313148641E-08  2.4106026685334761E-08
  5.9702724724330789E+00  3.0592120578884172E-08  2.3727600259579048E-08
  6.0297525118722604E+00  3.0048076741382776E-08  2.3357854398552831E-08
  6.0898251331589277E+00  2.9518097979155192E-08  2.2996602069611990E-08
  6.1504962400088328E+00  2.9001812485903709E-08  2.2643661019166485E-08
  6.2117717949546813E+00  2.8498860083642767E-08  2.2298853661691937E-08
  6.2736578199321187E+00  2.8008892025117424E-08  2.1962007139230892E-08
  6.3361603968715325E+00  2.7531571583737269E-08  2.1632954109859896E-08
  6.3992856682957573E+00  2.7066572547725967E-08  2.1311531648527542E-08
  6.4630398379237484E+00  2.6613562891016101E-08  2.0997568146088360E-08
  6.5274291712802643E+00  2.6172163362013435E-08  2.0690853390929229E-08
  6.5924599963116073E+00  2.5741964427027576E-08  2.0391152377938374E-08
  6.6581387040075111E+00  2.5322569554893626E-08  2.0098236079971856E-08
  6.7244717490292434E+00  2.4913597815789893E-08  1.9811883410701290E-08
  6.7914656503439286E+00  2.4514683135222831E-08  1.9531880874563352E-08
  6.8591269918651943E+00  2.4125473589304315E-08  1.9258022234975274E-08
  6.9274624231002493E+00  2.3745630739681776E-08  1.8990108200601282E-08
  6.9964786598033584E+00  2.3374829006335946E-08  1.8727946129179734E-08
  7.0661824846358119E+00  2.3012755055038209E-08  1.8471349727822906E-08
  7.1365807478325518E+00  2.2659107387966434E-08  1.8220138928940161E-08
  7.2076803678753594E+00  2.2313595445251995E-08  1.7974139334380302E-08
  7.2794883321727619E+00  2.1975925743516194E-08  1.7733170681847512E-08
  7.3520116977467689E+00  2.1645745571143532E-08  1.7497003484041476E-08
  7.4252575919263926E+00  2.1322621822850243E-08  1.7265345647656976E-08
  7.4992332130480577E+00  2.1006123445696305E-08  1.7037903879161938E-08
  7.5739458311631198E+00  2.0695838006469532E-08  1.6814395832789864E-08
  7.6494027887522371E+00  2.0391370838282563E-08  1.6594549674224401E-08
  7.7256115014470028E+00  2.0092344258547721E-08  1.6378103686139061E-08
  7.8025794587587800E+00  1.9798396864152377E-08  1.6164805920692997E-08
  7.8803142248146401E+00  1.9509182904228852E-08  1.5954413901693417E-08
  7.9588234391008177E+00  1.9224371720250657E-08  1.5746694368519131E-08
  8.0381148172134687E+00  1.8943647240911785E-08  1.5541423051971522E-08
  8.1181961516169032E+00  1.8666707519550651E-08  1.5338384468358323E-08
  8.1990753124094429E+00  1.8393267382640057E-08  1.5137374419479990E-08
  8.2807602480968470E+00  1.8123077422013415E-08  1.4938215623083994E-08
  8.3632589863734417E+00  1.7855950384659216E-08  1.4740777557133520E-08
  8.4465796349110871E+00  1.7591726444000187E-08  1.4544949470983751E-08
  8.5307303821559621E+00  1.7330253665495885E-08  1.4350625763323146E-08
  8.6157194981332559E+00  1.7071387570629469E-08  1.4157705729590501E-08
  8.7015553352599753E+00  1.6814991014312844E-08  1.3966093538732933E-08
  8.7882463291657551E+00  1.6560934072153463E-08  1.3775698215236852E-08
  8.8758009995218625E+00  1.6309093931880043E-08  1.3586433621284036E-08
  8.9642279508785290E+00  1.6059354768353832E-08  1.3398218419559222E-08
  9.0535358735105476E+00  1.5811607586865318E-08  1.3210976002673476E-08
  9.1437335442712815E+00  1.5565749581371186E-08  1.3024633958284448E-08
  9.2348298274553269E+00  1.5321685700578067E-08  1.2839125541033620E-08
  9.3268336756695405E+00  1.5079345892240121E-08  1.2654404469184521E-08
  9.4197541307129224E+00  1.4838729511195648E-08  1.2470480189901807E-08
  9.5136003244652692E+00  1.4599882205690566E-08  1.2287398566265971E-08
  9.6083814797844997E+00  1.4362850996413305E-08  1.2105206785948898E-08
  9.7041069114131453E+00  1.4127681406905777E-08  1.1923951136103923E-08
  9.8007860268937357E+00  1.3894417431747294E-08  1.1743676957161860E-08
