 #p(MeV) \t \delta f_\\nu \t \delta f_\\nubar
  1.3853313678847543E+00  2.0140360111569809E-08  1.7586433034905571E-08
  1.3991330100675179E+00  1.9737563147112739E-08  1.7255755946911744E-08
  1.4130721538844433E+00  1.9342995887374230E-08  1.6931240406083488E-08
  1.4271501692231985E+00  1.8956482695513790E-08  1.6612770987746237E-08
  1.4413684396192290E+00  1.8577852635643817E-08  1.6300235146090071E-08
  1.4557283623917334E+00  1.8206941893553631E-08  1.5993525486688662E-08
  1.4702313487809815E+00  1.7843591737598983E-08  1.5692537907825486E-08
  1.4848788240870081E+00  1.7487646751271059E-08  1.5397170038369094E-08
  1.4996722278096881E+00  1.7138954724919967E-08  1.5107321179048267E-08
  1.5146130137902003E+00  1.6797366589076014E-08  1.4822892280204341E-08
  1.5297026503539113E+00  1.6462736349200544E-08  1.4543785919687167E-08
  1.5449426204546721E+00  1.6134921021833157E-08  1.4269906280898715E-08
  1.5603344218205597E+00  1.5813780572102951E-08  1.4001159130988170E-08
  1.5758795671010701E+00  1.5499177852571867E-08  1.3737451799202064E-08
  1.5915795840157709E+00  1.5190978543379871E-08  1.3478693155392988E-08
  1.6074360155044463E+00  1.4889051093062729E-08  1.3224793588104921E-08
  1.6234504198787254E+00  1.4593266461318387E-08  1.2975664792455076E-08
  1.6396243709752303E+00  1.4303496558408740E-08  1.2731218322809767E-08
  1.6559594583102495E+00  1.4019615601619822E-08  1.2491366833434298E-08
  1.6724572872359431E+00  1.3741500914557603E-08  1.2256024908954498E-08
  1.6891194790981188E+00  1.3469032450054805E-08  1.2025108688142316E-08
  1.7059476713955646E+00  1.3202092729250782E-08  1.1798535834325540E-08
  1.7229435179409796E+00  1.2940566784880301E-08  1.1576225508677020E-08
  1.7401086890235069E+00  1.2684342105871910E-08  1.1358098343956765E-08
  1.7574448715728772E+00  1.2433308583223962E-08  1.1144076418699291E-08
  1.7749537693252015E+00  1.2187358457125840E-08  1.0934083231837517E-08
  1.7926371029904016E+00  1.1946386265294525E-08  1.0728043677756213E-08
  1.8104966104213172E+00  1.1710288792635736E-08  1.0525884021903258E-08
  1.8285340467844993E+00  1.1478965062389658E-08  1.0327531915780817E-08
  1.8467511847326950E+00  1.1252317017500677E-08  1.0132917071208605E-08
  1.8651498145790639E+00  1.1030248816517472E-08  9.9419706820215863E-09
  1.8837317444731176E+00  1.0812665768261978E-08  9.7546244255590766E-09
  1.9024988005784209E+00  1.0599475151356197E-08  9.5708111798753785E-09
  1.9214528272520628E+00  1.0390586214830211E-08  9.3904650413564244E-09
  1.9405956872259063E+00  1.0185910134683963E-08  9.2135213037307866E-09
  1.9599292617896598E+00  9.9853599714609011E-09  9.0399164374104046E-09
  1.9794554509757540E+00  9.7888506288083048E-09  8.8695880691570476E-09
  1.9991761737460767E+00  9.5962988129990388E-09  8.7024749620695685E-09
  2.0190933681805601E+00  9.4076229933908298E-09  8.5385169958879821E-09
  2.0392089916676461E+00  9.2227433637941129E-09  8.3776551476049605E-09
  2.0595250210966505E+00  9.0415817982306771E-09  8.2198314660536088E-09
  2.0800434530520504E+00  8.8640615883873013E-09  8.0649888361639388E-09
  2.1007663040096931E+00  8.6901071181723125E-09  7.9130706815864935E-09
  2.1216956105349754E+00  8.5196444244321925E-09  7.7640215077885005E-09
  2.1428334294829821E+00  8.3526011682104753E-09  7.6177869007162680E-09
  2.1641818382006344E+00  8.1889065705317947E-09  7.4743134821486205E-09
  2.1857429347308370E+00  8.0284913771122138E-09  7.3335488899740017E-09
  2.2075188380186681E+00  7.8712878239129103E-09  7.1954417588409356E-09
  2.2295116881196253E+00  7.7172296035158147E-09  7.0599417011747955E-09
  2.2517236464099373E+00  7.5662518323003000E-09  6.9269992885542576E-09
  2.2741568957989755E+00  7.4182910184007261E-09  6.7965660334404838E-09
  2.2968136409437898E+00  7.2732850304249783E-09  6.6685943712525544E-09
  2.3196961084657639E+00  7.1311730682498245E-09  6.5430376440865510E-09
  2.3428065471694497E+00  6.9918956827445265E-09  6.4198501317618784E-09
  2.3661472282635612E+00  6.8553948154568228E-09  6.2989870992394611E-09
  2.3897204455841901E+00  6.7216138799747423E-09  6.1804048698611630E-09
  2.4135285158202282E+00  6.5904975653669681E-09  6.0640606596435214E-09
  2.4375737787410467E+00  6.4619917113986771E-09  5.9499124743008381E-09
  2.4618585974264411E+00  6.3360432836902302E-09  5.8379190949052132E-09
  2.4863853584988624E+00  6.2126003496706514E-09  5.7280400640070923E-09
  2.5111564723579667E+00  6.0916120550633037E-09  5.6202356719916462E-09
  2.5361743734175053E+00  5.9730286008915013E-09  5.5144669436672224E-09
  2.5614415203445593E+00  5.8568012209919682E-09  5.4106956250823679E-09
  2.5869603963011825E+00  5.7428821600243009E-09  5.3088841705676913E-09
  2.6127335091884216E+00  5.6312246517559115E-09  5.2089957297949704E-09
  2.6387633918927991E+00  5.5217828862417324E-09  5.1109941237247998E-09
  2.6650526025352232E+00  5.4145121348025390E-09  5.0148439690644886E-09
  2.6916037247223970E+00  5.3093691229625669E-09  4.9205110346684682E-09
  2.7184193678007271E+00  5.2063115922052625E-09  4.8279618371032489E-09
  2.7455021671127549E+00  5.1052981137185927E-09  4.7371634743011557E-09
  2.7728547842561517E+00  5.0062880709814746E-09  4.6480836152627527E-09
  2.8004799073452951E+00  4.9092416442493664E-09  4.5606904913133083E-09
  2.8283802512754357E+00  4.8141197953260294E-09  4.4749528874584483E-09
  2.8565585579895201E+00  4.7208842526161341E-09  4.3908401338386947E-09
  2.8850175967476464E+00  4.6294974964539042E-09  4.3083220972829571E-09
  2.9137601643992292E+00  4.5399227447026434E-09  4.2273691729606402E-09
  2.9427890856578540E+00  4.4521239386224133E-09  4.1479522761341641E-09
  2.9721072133788802E+00  4.3660657293798666E-09  4.0700428343784383E-09
  3.0017174288398203E+00  4.2817133651060703E-09  3.9936126845695734E-09
  3.0316226420234855E+00  4.1990320731160829E-09  3.9186334974130125E-09
  3.0618257919039777E+00  4.1179872599222888E-09  3.8450769756984597E-09
  3.0923298467355225E+00  4.0385450554386153E-09  3.7729153635631386E-09
  3.1231378043441689E+00  3.9606723327347658E-09  3.7021214686463621E-09
  3.1542526924224172E+00  3.8843366906514529E-09  3.6326686501286899E-09
  3.1856775688267551E+00  3.8095064368497090E-09  3.5645308070366581E-09
  3.2174155218781872E+00  3.7361505712825576E-09  3.4976823668069541E-09
  3.2494696706657336E+00  3.6642387700779550E-09  3.4320982741039628E-09
  3.2818431653529623E+00  3.5937413698220025E-09  3.3677539798848813E-09
  3.3145391874875867E+00  3.5246293522318345E-09  3.3046254307065455E-09
  3.3475609503141235E+00  3.4568743297108680E-09  3.2426890587598636E-09
  3.3809116990896819E+00  3.3904485825560091E-09  3.1819218218502595E-09
  3.4145947114029043E+00  3.3253254900255621E-09  3.1223016162756921E-09
  3.4486132974960606E+00  3.2614797045771763E-09  3.0638074365081846E-09
  3.4829708005903819E+00  3.1988864769924978E-09  3.0064187454193613E-09
  3.5176705972146065E+00  3.1375215184529256E-09  2.9501153493417701E-09
  3.5527160975368250E+00  3.0773609925613907E-09  2.8948773932888122E-09
  3.5881107456996078E+00  3.0183815075571917E-09  2.8406853562767588E-09
  3.6238580201584885E+00  2.9605601086462480E-09  2.7875200466799960E-09
  3.6599614340238174E+00  2.9038742704457097E-09  2.7353625976203999E-09
  3.6964245354060083E+00  2.8483018895415870E-09  2.6841944623915814E-09
  3.7332509077642380E+00  2.7938212771581818E-09  2.6339974099187680E-09
  3.7704441702586200E+00  2.7404111518695279E-09  2.5847535201886830E-09
  3.8080079781058722E+00  2.6880506168522232E-09  2.5364451645514586E-09
  3.8459460229385498E+00  2.6367189491944382E-09  2.4890548055491358E-09
  3.8842620331678326E+00  2.5863953032587163E-09  2.4425647216803027E-09
  3.9229597743499522E+00  2.5370590830930959E-09  2.3969573632807284E-09
  3.9620430495562471E+00  2.4886901313599002E-09  2.3522155310522094E-09
  4.0015156997469177E+00  2.4412687223808912E-09  2.3083223715140041E-09
  4.0413816041485084E+00  2.3947755523963994E-09  2.2652613698137626E-09
  4.0816446806351303E+00  2.3491917300566407E-09  2.2230163426929831E-09
  4.1223088861135055E+00  2.3044987671392961E-09  2.1815714316035284E-09
  4.1633782169118376E+00  2.2606785694877069E-09  2.1409110959718820E-09
  4.2048567091725495E+00  2.2177134281641508E-09  2.1010201066078511E-09
  4.2467484392489441E+00  2.1755860108198139E-09  2.0618835392613628E-09
  4.2890575241058144E+00  2.1342793554240135E-09  2.0234867704136642E-09
  4.3317881217240464E+00  2.0937769246335975E-09  1.9858155317407936E-09
  4.3749444315092401E+00  2.0540627788194642E-09  1.9488560761276873E-09
  4.4185306947044181E+00  2.0151214646075088E-09  1.9125950711279955E-09
  4.4625511948068475E+00  1.9769378396950589E-09  1.8770194352388871E-09
  4.5070102579889868E+00  1.9394970565102560E-09  1.8421163239250282E-09
  4.5519122535236614E+00  1.9027845565829140E-09  1.8078731256113461E-09
  4.5972615942134603E+00  1.8667860650197068E-09  1.7742774577348408E-09
  4.6430627368243984E+00  1.8314875850818981E-09  1.7413171628549135E-09
  4.6893201825239181E+00  1.7968753928636493E-09  1.7089803048215065E-09
  4.7360384773232509E+00  1.7629360320692246E-09  1.6772551650004853E-09
  4.7832222125241808E+00  1.7296563088872770E-09  1.6461302385556267E-09
  4.8308760251702516E+00  1.6970232869632390E-09  1.6155942307913528E-09
  4.8790045985024877E+00  1.6650242718956299E-09  1.5856360432942702E-09
  4.9276126624196479E+00  1.6336467207567380E-09  1.5562446880180269E-09
  4.9767049939430539E+00  1.6028782371237801E-09  1.5274092844929323E-09
  5.0262864176860589E+00  1.5727066651707720E-09  1.4991191505278645E-09
  5.0763618063282072E+00  1.5431200984413109E-09  1.4713638114213721E-09
  5.1269360810940832E+00  1.5141068745872765E-09  1.4441329959112177E-09
  5.1780142122369588E+00  1.4856555702201454E-09  1.4174166322011766E-09
  5.2296012195272610E+00  1.4577549958743796E-09  1.3912048440654847E-09
  5.2817021727458879E+00  1.4303941910803842E-09  1.3654879470294139E-09
  5.3343221921824417E+00  1.4035624195445375E-09  1.3402564446244985E-09
  5.3874664491384410E+00  1.3772491644338584E-09  1.3155010247169402E-09
  5.4411401664355425E+00  1.3514441237253291E-09  1.2912125558709040E-09
  5.4953486189288050E+00  1.3261372066344328E-09  1.2673820847333144E-09
  5.5500971340250889E+00  1.3013185828548314E-09  1.2440008844977185E-09
  5.6053910922066299E+00  1.2769787102144883E-09  1.2210604821284616E-09
  5.6612359275597859E+00  1.2531082473547073E-09  1.1985525749204672E-09
  5.7176371283090939E+00  1.2296980350065697E-09  1.1764690132658403E-09
  5.7746002373566387E+00  1.2067390924405906E-09  1.1548017979229335E-09
  5.8321308528267766E+00  1.1842226140280533E-09  1.1335430773714771E-09
  5.8902346286163008E+00  1.1621399658672892E-09  1.1126851452101895E-09
  5.9489172749500865E+00  1.1404826824736798E-09  1.0922204375963555E-09
  6.0081845589422826E+00  1.1192424635322084E-09  1.0721415307267507E-09
  6.0680423051630594E+00  1.0984111707114241E-09  1.0524411383594106E-09
  6.1284963962110393E+00  1.0779808245394468E-09  1.0331121093774683E-09
  6.1895527732914273E+00  1.0579436015771986E-09  1.0141474256200683E-09
  6.2512174367998679E+00  1.0382918041000984E-09  9.9554017297112046E-10
  6.3134964469121524E+00  1.0190178278545877E-09  9.7728351044228839E-10
  6.3763959241797998E+00  1.0001142242874415E-09  9.5937073097304472E-10
  6.4399220501315542E+00  9.8157369592373386E-10  9.4179525781574788E-10
  6.5040810678808718E+00  9.6338909179522181E-10  9.2455064062921554E-10
  6.5688792827394860E+00  9.4555340445488619E-10  9.0763055306146800E-10
  6.6343230628370726E+00  9.2805976705326782E-10  8.9102879037808312E-10
  6.7004188397470710E+00  9.1090145047530157E-10  8.7473926713534954E-10
  6.7671731091187626E+00  8.9407186053632582E-10  8.5875601489735575E-10
  6.8345924313156496E+00  8.7756453523605331E-10  8.4307317999620124E-10
  6.9026834320601669E+00  8.6137314206932374E-10  8.2768502133459192E-10
  6.9714528030848371E+00  8.4549147493497605E-10  8.1258590778851440E-10
  7.0409073027899209E+00  8.2991345659501698E-10  7.9777032101905354E-10
  7.1110537569076069E+00  8.1463315261652870E-10  7.8323286960179211E-10
  7.1818990591727880E+00  7.9964472261790057E-10  7.6896824241146465E-10
  7.2534501720005959E+00  7.8494243587156027E-10  7.5497122354116288E-10
  7.3257141271706239E+00  7.7052067671375574E-10  7.4123669776111377E-10
  7.3986980265179723E+00  7.5637394218838316E-10  7.2775964857410841E-10
  7.4724090426312006E+00  7.4249683974000975E-10  7.1453515630814335E-10
  7.5468544195572385E+00  7.2888408495511374E-10  7.0155839624563339E-10
  7.6220414735132724E+00  7.1553049935050974E-10  6.8882463678852989E-10
  7.6979775936057768E+00  7.0243100820793417E-10  6.7632923765863199E-10
  7.7746702425566889E+00  6.8958063845380987E-10  6.6406764813245049E-10
  7.8521269574368207E+00  6.7697451677112040E-10  6.5203540549077790E-10
  7.9303553504065425E+00  6.6460787237503744E-10  6.4022813796579481E-10
  8.0093631094639228E+00  6.5247604799098694E-10  6.2864157559776755E-10
  8.0891579992002569E+00  6.4057452867750613E-10  6.1727157804185523E-10
  8.1697478615631294E+00  6.2889890491596088E-10  6.0611409935953365E-10
  8.2511406166271044E+00  6.1744485077002190E-10  5.9516516731822226E-10
  8.3333442633720960E+00  6.0620812221443169E-10  5.8442088199673648E-10
  8.4163668804694485E+00  5.9518455563539179E-10  5.7387741454842592E-10
  8.5002166270758934E+00  5.8437006635684690E-10  5.6353100598302831E-10
  8.5849017436354078E+00  5.7376064719224676E-10  5.5337796596703260E-10
  8.6704305526890568E+00  5.6335236702139627E-10  5.4341467164234095E-10
  8.7568114596928641E+00  5.5314136939199383E-10  5.3363756646300854E-10
  8.8440529538439243E+00  5.4312387113278110E-10  5.2404315903785701E-10
  8.9321636089146637E+00  5.3329615789728782E-10  5.1462801901028437E-10
  9.0211520840954247E+00  5.2365456538643460E-10  5.0538875900396536E-10
  9.1110271248454797E+00  5.1419546154385877E-10  4.9632201766394341E-10
  9.2017975637525069E+00  5.0491526467836545E-10  4.8742447742797449E-10
  9.2934723214005999E+00  4.9581046455279656E-10  4.7869288494333064E-10
  9.3860604072469691E+00  4.8687762191968760E-10  4.7012405076609992E-10
  9.4795709205073582E+00  4.7811336704654008E-10  4.6171484808710399E-10
  9.5740130510502830E+00  4.6951439827268198E-10  4.5346221148360615E-10
  9.6693960803001424E+00  4.6107748059702879E-10  4.4536313569627800E-10
  9.7657293821494182E+00  4.5279944429603160E-10  4.3741467443089626E-10
  9.8630224238798778E+00  4.4467718357116138E-10  4.2961393918426168E-10
  9.9612847670929785E+00  4.3670765522540525E-10  4.2195809809396558E-10
  1.0060526068649548E+01  4.2888787784801035E-10  4.1444437526896979E-10
  1.0160756081618846E+01  4.2121493771664089E-10  4.0707005662950270E-10
  1.0261984656237036E+01  4.1368599987638226E-10  3.9983250081491975E-10
  1.0364221740875236E+01  4.0629829393176891E-10  3.9272912549698834E-10
  1.0467477383017220E+01  3.9904910354367556E-10  3.8575739730490026E-10
  1.0571761730246843E+01  3.9193576525521303E-10  3.7891483079329505E-10
  1.0677085031245275E+01  3.8495566746074906E-10  3.7219898754906453E-10
  1.0783457636798259E+01  3.7810624939497952E-10  3.6560747531431195E-10
  1.0890890000813320E+01  3.7138500014166823E-10  3.5913794712519999E-10
  1.0999392681347130E+01  3.6478945766166888E-10  3.5278810046640134E-10
  1.1108976341643112E+01  3.5831720783984930E-10  3.4655567644087465E-10
  1.1219651751179425E+01  3.5196588355054831E-10  3.4043845895471262E-10
  1.1331429786727291E+01  3.4573316379178602E-10  3.3443427396650004E-10
  1.1444321433419955E+01  3.3961677544719878E-10  3.2854099126804761E-10
  1.1558337785832272E+01  3.3361448837189550E-10  3.2275651978579138E-10
  1.1673490049071036E+01  3.2772410274048354E-10  3.1707879549264449E-10
  1.1789789539876130E+01  3.2194345691590830E-10  3.1150578905948029E-10
  1.1907247687732772E+01  3.1627043222284279E-10  3.0603551052622301E-10
  1.2025876035994717E+01  3.1070295209545987E-10  3.0066600855013692E-10
  1.2145686243018686E+01  3.0523898122153827E-10  2.9539536964832622E-10
  1.2266690083310126E+01  2.9987652470471191E-10  2.9022171745550581E-10
  1.2388899448680379E+01  2.9461362724443615E-10  2.8514321199670366E-10
  1.2512326349415329E+01  2.8944837233327312E-10  2.8015804897457888E-10
  1.2636982915455745E+01  2.8437888147108662E-10  2.7526445907103115E-10
  1.2762881397589391E+01  2.7940331339154241E-10  2.7046070725876173E-10
  1.2890034168654944E+01  2.7451986008641137E-10  2.6574508903577674E-10
  1.3018453724757974E+01  2.6972673840892829E-10  2.6111592239860121E-10
  1.3148152686499028E+01  2.6502221630264648E-10  2.5657157308163360E-10
  1.3279143800213921E+01  2.6040462560751962E-10  2.5211046706002593E-10
  1.3411439939226391E+01  2.5587233084458067E-10  2.4773106051522444E-10
  1.3545054105113246E+01  2.5142372696913451E-10  2.4343183771072289E-10
  1.3679999428982141E+01  2.4705723882406803E-10  2.3921131050600643E-10
  1.3816289172762005E+01  2.4277132060303619E-10  2.3506801787882582E-10
  1.3953936730506403E+01  2.3856445532331708E-10  2.3100052545562656E-10
  1.4092955629709863E+01  2.3443515430812007E-10  2.2700742504995996E-10
  1.4233359532637303E+01  2.3038195667815800E-10  2.2308733420871682E-10
  1.4375162237666661E+01  2.2640342885232841E-10  2.1923889576606812E-10
  1.4518377680645026E+01  2.2249816488355029E-10  2.1546077819390633E-10
  1.4663019936258172E+01  2.1866478814645597E-10  2.1175167719929601E-10
  1.4809103219413709E+01  2.1490193441351903E-10  2.0811029945145022E-10
  1.4956641886638165E+01  2.1120823559705300E-10  2.0453534692175175E-10
  1.5105650437487855E+01  2.0758234740839340E-10  2.0102554363930163E-10
  1.5256143515973786E+01  2.0402295304042985E-10  1.9757963928206296E-10
  1.5408135912000917E+01  2.0052876257913019E-10  1.9419640863989199E-10
  1.5561642562821611E+01  1.9709851242844501E-10  1.9087465108944000E-10
  1.5716678554503538E+01  1.9373096474826060E-10  1.8761319008064127E-10
  1.5873259123412469E+01  1.9042490690506885E-10  1.8441087263450119E-10
  1.6031399657709432E+01  1.8717915093506343E-10  1.8126656885193303E-10
  1.6191115698863101E+01  1.8399253301933629E-10  1.7817917143336183E-10
  1.6352422943177256E+01  1.8086391290195489E-10  1.7514759514429938E-10
  1.6515337243333139E+01  1.7779217898983189E-10  1.7217078179416857E-10
  1.6679874609947582E+01  1.7477625231635804E-10  1.6924770402912059E-10
  1.6846051213146406E+01  1.7181507624232955E-10  1.6637735536334296E-10
  1.7013883384153516E+01  1.6890761855060197E-10  1.6355875229197948E-10
  1.7183387616895956E+01  1.6605286703429777E-10  1.6079093005267174E-10
  1.7354580569624847E+01  1.6324982908945098E-10  1.5807294225299188E-10
  1.7527479066552420E+01  1.6049753133082085E-10  1.5540386051956748E-10
  1.7702100099505557E+01  1.5779501921620323E-10  1.5278277415474536E-10
  1.7878460829595642E+01  1.5514135667898986E-10  1.5020878980057237E-10
  1.8056578588905019E+01  1.5253562576873234E-10  1.4768103110987805E-10
  1.8236470882190432E+01  1.4997692629947472E-10  1.4519863842425039E-10
  1.8418155388603292E+01  1.4746437551058548E-10  1.4276076846313065E-10
  1.8601649963427050E+01  1.4499710316642156E-10  1.4036658961121176E-10
  1.8786972639832065E+01  1.4257422307812214E-10  1.3801525450304357E-10
  1.8974141630647782E+01  1.4019485849858788E-10  1.3570592460381787E-10
  1.9163175330152537E+01  1.3785814796448882E-10  1.3343777579130622E-10
  1.9354092315881502E+01  1.3556324825905328E-10  1.3121000121856984E-10
  1.9546911350452156E+01  1.3330933433778331E-10  1.2902181125531891E-10
  1.9741651383408335E+01  1.3109559890370877E-10  1.2687243308992136E-10
  1.9938331553082612E+01  1.2892125199436584E-10  1.2476111034231890E-10
  2.0136971188476931E+01  1.2678552058011113E-10  1.2268710268748688E-10
  2.0337589811162363E+01  1.2468764817337982E-10  1.2064968548907184E-10
  2.0540207137197562E+01  1.2262689444853052E-10  1.1864814944287341E-10
