 #p(MeV) \t \delta f_\\nu \t \delta f_\\nubar
  1.2838566726367743E-02  9.9232432072342516E-02  2.1286990849881835E-06
  1.2966473527732832E-02  9.8985292102308664E-02  2.1098021739802618E-06
  1.3095654626313805E-02  9.8752182101654151E-02  2.0910538164228697E-06
  1.3226122717552805E-02  9.8541333705977327E-02  2.0724535071878305E-06
  1.3357890623372838E-02  9.8365137071213860E-02  2.0540008298001709E-06
  1.3490971293437924E-02  9.8147200498071324E-02  2.0356954324388615E-06
  1.3625377806425693E-02  9.7920264484552488E-02  2.0175370049797814E-06
  1.3761123371312729E-02  9.7643080699621188E-02  1.9995252720539021E-06
  1.3898221328672722E-02  9.7403310213370439E-02  1.9816599958456991E-06
  1.4036685151987478E-02  9.7160097535135895E-02  1.9639409379024167E-06
  1.4176528448971106E-02  9.6963287605122350E-02  1.9463677743528895E-06
  1.4317764962907275E-02  9.6749295615560893E-02  1.9289400062106558E-06
  1.4460408573999885E-02  9.6525593446919480E-02  1.9116569040492082E-06
  1.4604473300737175E-02  9.6288917733043364E-02  1.8945174986717971E-06
  1.4749973301269361E-02  9.6046853618017722E-02  1.8775206054872141E-06
  1.4896922874800112E-02  9.5794390865199863E-02  1.8606648648400162E-06
  1.5045336462991761E-02  9.5580816049288239E-02  1.8439487848286144E-06
  1.5195228651384597E-02  9.5347339252259494E-02  1.8273707784760589E-06
  1.5346614170830318E-02  9.5119266131715410E-02  1.8109292000958894E-06
  1.5499507898939665E-02  9.4905506598321851E-02  1.7946223714597154E-06
  1.5653924861544585E-02  9.4704216168235697E-02  1.7784485727163542E-06
  1.5809880234174883E-02  9.4471981346453626E-02  1.7624060377627231E-06
  1.5967389343549621E-02  9.4286129884080291E-02  1.7464929955134170E-06
  1.6126467669083416E-02  9.4069336016821201E-02  1.7307077449632943E-06
  1.6287130844407614E-02  9.3837433591669836E-02  1.7150487267501699E-06
  1.6449394658906807E-02  9.3604254957124766E-02  1.6995145633329485E-06
  1.6613275059270471E-02  9.3397709779105303E-02  1.6841040642064145E-06
  1.6778788151060181E-02  9.3171237996071229E-02  1.6688162075304284E-06
  1.6945950200292426E-02  9.2942050352005381E-02  1.6536501109778718E-06
  1.7114777635037132E-02  9.2731765568750485E-02  1.6386050016351935E-06
  1.7285287047032194E-02  9.2517708823532038E-02  1.6236801858989737E-06
  1.7457495193314018E-02  9.2298051482241822E-02  1.6088750190585949E-06
  1.7631418997864343E-02  9.2077488593060516E-02  1.5941889028058372E-06
  1.7807075553273512E-02  9.1852837871346460E-02  1.5796213062637623E-06
  1.7984482122420185E-02  9.1627592063639199E-02  1.5651717715065823E-06
  1.8163656140167978E-02  9.1394164264851419E-02  1.5508398879603772E-06
  1.8344615215078786E-02  9.1214593417990320E-02  1.5366252483044913E-06
  1.8527377131143368E-02  9.0988901587712293E-02  1.5225274078591659E-06
  1.8711959849529076E-02  9.0803530781746106E-02  1.5085458609897527E-06
  1.8898381510344977E-02  9.0600134639908819E-02  1.4946800345258485E-06
  1.9086660434424623E-02  9.0372779776062215E-02  1.4809292927796996E-06
  1.9276815125126578E-02  9.0141393688938642E-02  1.4672929479667027E-06
  1.9468864270152795E-02  8.9898011022385219E-02  1.4537702720496439E-06
  1.9662826743385257E-02  8.9678983066740173E-02  1.4403605093607685E-06
  1.9858721606740754E-02  8.9460248371577150E-02  1.4270628852261449E-06
  2.0056568112044280E-02  8.9245092839100593E-02  1.4138766152312939E-06
  2.0256385702920984E-02  8.9033404908342384E-02  1.4008009301414837E-06
  2.0458194016707038E-02  8.8847421791990080E-02  1.3878351159260781E-06
  2.0662012886379550E-02  8.8648297496313311E-02  1.3749785533158982E-06
  2.0867862342505622E-02  8.8462152889378573E-02  1.3622307413398837E-06
  2.1075762615210901E-02  8.8249412537627109E-02  1.3495912991717254E-06
  2.1285734136167758E-02  8.8034205007252592E-02  1.3370599513016028E-06
  2.1497797540603172E-02  8.7815267111275089E-02  1.3246365045433876E-06
  2.1711973669326753E-02  8.7600175379328307E-02  1.3123208239460898E-06
  2.1928283570778827E-02  8.7386549719880594E-02  1.3001128116117933E-06
  2.2146748503099077E-02  8.7168343567348483E-02  1.2880123906346897E-06
  2.2367389936215645E-02  8.6967822356981861E-02  1.2760194905992139E-06
  2.2590229553955149E-02  8.6763698865361491E-02  1.2641340180330513E-06
  2.2815289256173713E-02  8.6552532629952481E-02  1.2523558023967530E-06
  2.3042591160909155E-02  8.6342122014250122E-02  1.2406845301504820E-06
  2.3272157606554687E-02  8.6141695696560494E-02  1.2291196910859046E-06
  2.3504011154054281E-02  8.5953187501382686E-02  1.2176605549855968E-06
  2.3738174589119813E-02  8.5769989600788660E-02  1.2063061814828516E-06
  2.3974670924470434E-02  8.5576819760521713E-02  1.1950554532344849E-06
  2.4213523402094081E-02  8.5352662909669572E-02  1.1839071186971964E-06
  2.4454755495531721E-02  8.5115573208571216E-02  1.1728598339183835E-06
  2.4698390912184169E-02  8.4865366762944969E-02  1.1619121979560494E-06
  2.4944453595641954E-02  8.4647091100510025E-02  1.1510627807119678E-06
  2.5192967728038501E-02  8.4435604453367064E-02  1.1403101468376348E-06
  2.5443957732426553E-02  8.4248677843615519E-02  1.1296528907625558E-06
  2.5697448275178419E-02  8.4096092567664801E-02  1.1190896875084434E-06
  2.5953464268410151E-02  8.3915943455686537E-02  1.1086193438550529E-06
  2.6212030872429702E-02  8.3723078026671616E-02  1.0982408315996954E-06
  2.6473173498209705E-02  8.3517012908429944E-02  1.0879532937784088E-06
  2.6736917809884662E-02  8.3316977001435852E-02  1.0777560268733416E-06
  2.7003289727273228E-02  8.3098958712568963E-02  1.0676484489835617E-06
  2.7272315428425422E-02  8.2899051408685462E-02  1.0576300649180563E-06
  2.7544021352195337E-02  8.2677043537149109E-02  1.0477004354409471E-06
  2.7818434200839525E-02  8.2500470918125401E-02  1.0378591535073441E-06
  2.8095580942641071E-02  8.2294228087934698E-02  1.0281058268317801E-06
  2.8375488814560017E-02  8.2099595396742248E-02  1.0184400629661585E-06
  2.8658185324910133E-02  8.1896783238554621E-02  1.0088614451002220E-06
  2.8943698256062224E-02  8.1702112049004863E-02  9.9936949685855218E-07
  2.9232055667174631E-02  8.1506940128024605E-02  9.8996365552228859E-07
  2.9523285896950611E-02  8.1304123129625705E-02  9.8064326947506152E-07
  2.9817417566423525E-02  8.1097760199799043E-02  9.7140762077958947E-07
  3.0114479581769493E-02  8.0899430930756078E-02  9.6225596149433192E-07
  3.0414501137148203E-02  8.0697765325500534E-02  9.5318754922399329E-07
  3.0717511717572088E-02  8.0506683939666188E-02  9.4420167267317459E-07
  3.1023541101803897E-02  8.0307587552009535E-02  9.3529766483666957E-07
  3.1332619365283275E-02  8.0106180778870481E-02  9.2647490592451165E-07
  3.1644776883082544E-02  7.9916766121229207E-02  9.1773282009264990E-07
  3.1960044332891714E-02  7.9736133470475756E-02  9.0907087078011036E-07
  3.2278452698033512E-02  7.9556651296463776E-02  9.0048856356996245E-07
  3.2600033270508179E-02  7.9365576237165600E-02  8.9198545912543348E-07
  3.2924817654068878E-02  7.9173253195809604E-02  8.8356117763360795E-07
  3.3252837767327438E-02  7.8965164626401255E-02  8.7521537884573263E-07
  3.3584125846891300E-02  7.8757410832675054E-02  8.6694771896994653E-07
  3.3918714450531622E-02  7.8546694136164372E-02  8.5875779829076317E-07
  3.4256636460382850E-02  7.8361980314477914E-02  8.5064511816023601E-07
  3.4597925086174312E-02  7.8166104361756819E-02  8.4260905838753877E-07
  3.4942613868493982E-02  7.7995852617530170E-02  8.3464887518098179E-07
  3.5290736682084614E-02  7.7805172779538953E-02  8.2676371410568276E-07
  3.5642327739172974E-02  7.7617217919537324E-02  8.1895263089206823E-07
  3.5997421592831931E-02  7.7457107648517515E-02  8.1121461380092781E-07
  3.6356053140376363E-02  7.7279955755530122E-02  8.0354860030368675E-07
  3.6718257626792608E-02  7.7082713092020444E-02  7.9595348391368969E-07
  3.7084070648202273E-02  7.6885582177527112E-02  7.8842812510236605E-07
  3.7453528155360509E-02  7.6686663783851958E-02  7.8097138247549472E-07
  3.7826666457189066E-02  7.6484120193983082E-02  7.7358216492852851E-07
  3.8203522224344602E-02  7.6271208071267860E-02  7.6625949275327581E-07
  3.8584132492822637E-02  7.6091606901037029E-02  7.5900254867369431E-07
  3.8968534667597171E-02  7.5909629873198423E-02  7.5181070409658634E-07
  3.9356766526296785E-02  7.5727629053201129E-02  7.4468351941148170E-07
  3.9748866222917296E-02  7.5541048383676382E-02  7.3762072467348642E-07
  4.0144872291571390E-02  7.5349037789649617E-02  7.3062218956536449E-07
  4.0544823650275556E-02  7.5154577268507564E-02  7.2368789043853740E-07
  4.0948759604774836E-02  7.4951014482786557E-02  7.1681788125032600E-07
  4.1356719852405729E-02  7.4772513277315600E-02  7.1001227516282370E-07
  4.1768744485997357E-02  7.4587177386871636E-02  7.0327123183275784E-07
  4.2184873997811706E-02  7.4420882805095942E-02  6.9659493672695849E-07
  4.2605149283523130E-02  7.4270162895325620E-02  6.8998356591166892E-07
  4.3029611646237295E-02  7.4102362064648319E-02  6.8343723976704082E-07
  4.3458302800550366E-02  7.3918783809550553E-02  6.7695597691638156E-07
  4.3891264876648579E-02  7.3722710506029215E-02  6.7053966299582811E-07
  4.4328540424448629E-02  7.3524071694075571E-02  6.6418803916403656E-07
  4.4770172417779273E-02  7.3330083704188767E-02  6.5790070818111185E-07
  4.5216204258604661E-02  7.3133034629757371E-02  6.5167715241262582E-07
  4.5666679781289805E-02  7.2952552350942196E-02  6.4551675738397011E-07
  4.6121643256908332E-02  7.2770393240001771E-02  6.3941883538525864E-07
  4.6581139397593306E-02  7.2590457261660774E-02  6.3338264199636768E-07
  4.7045213360931516E-02  7.2411782065711597E-02  6.2740738210300631E-07
  4.7513910754401187E-02  7.2226750116170982E-02  6.2149221257800323E-07
  4.7987277639854192E-02  7.2051199011422554E-02  6.1563625049220055E-07
  4.8465360538042970E-02  7.1877418725263931E-02  6.0983859133742276E-07
  4.8948206433192268E-02  7.1709718185475210E-02  6.0409833555121925E-07
  4.9435862777616545E-02  7.1527477399774109E-02  5.9841461493595196E-07
  4.9928377496383514E-02  7.1340292180509440E-02  5.9278661243800910E-07
  5.0425798992024096E-02  7.1171507174125764E-02  5.8721357294443842E-07
  5.0928176149289024E-02  7.0989700663365060E-02  5.8169480522925421E-07
  5.1435558339953225E-02  7.0788878072646416E-02  5.7622967746860918E-07
  5.1947995427667933E-02  7.0604863306701376E-02  5.7081760932199622E-07
  5.2465537772860948E-02  7.0434752548816135E-02  5.6545806471661968E-07
  5.2988236237685928E-02  7.0258626577105771E-02  5.6015055032395879E-07
  5.3516142191021056E-02  7.0084708238000254E-02  5.5489461808709673E-07
  5.4049307513517254E-02  6.9897317911449638E-02  5.4968986565341327E-07
  5.4587784602696809E-02  6.9735162612966653E-02  5.4453592944728838E-07
  5.5131626378102871E-02  6.9576502100381618E-02  5.3943246939745329E-07
  5.5680886286500246E-02  6.9395958595910967E-02  5.3437914952743755E-07
  5.6235618307127790E-02  6.9226034427470037E-02  5.2937562008910483E-07
  5.6795876957003374E-02  6.9045153490670738E-02  5.2442150460540503E-07
  5.7361717296281707E-02  6.8856418733377542E-02  5.1951639351877287E-07
  5.7933194933665270E-02  6.8663504597580083E-02  5.1465984374251230E-07
  5.8510366031869418E-02  6.8489842963321251E-02  5.0985138209745507E-07
  5.9093287313141903E-02  6.8309030557428319E-02  5.0509051059556795E-07
  5.9682016064837279E-02  6.8126718484805504E-02  5.0037671095802647E-07
  6.0276610145046795E-02  6.7966463203707722E-02  4.9570944829970518E-07
  6.0877127988284610E-02  6.7806728864365826E-02  4.9108817686617233E-07
  6.1483628611230509E-02  6.7641105049728131E-02  4.8651235089232225E-07
  6.2096171618529775E-02  6.7461820559880578E-02  4.8198144105161344E-07
  6.2714817208650908E-02  6.7278294002401415E-02  4.7749495307664726E-07
  6.3339626179801878E-02  6.7109354983295316E-02  4.7305244318169660E-07
  6.3970659935904881E-02  6.6941478705966728E-02  4.6865352725210219E-07
  6.4607980492631070E-02  6.6757560581070227E-02  4.6429788257763585E-07
  6.5251650483495224E-02  6.6590143228686116E-02  4.5998524315769692E-07
  6.5901733166011167E-02  6.6414342497335979E-02  4.5571539113282860E-07
  6.6558292427908200E-02  6.6241018856325717E-02  4.5148814660845360E-07
  6.7221392793410148E-02  6.6067552361525159E-02  4.4730335766113949E-07
  6.7891099429576371E-02  6.5890843669015195E-02  4.4316089208659182E-07
  6.8567478152706085E-02  6.5725432925509031E-02  4.3906063186403361E-07
  6.9250595434806619E-02  6.5556249720000848E-02  4.3500247008361621E-07
  6.9940518410126162E-02  6.5398518574599412E-02  4.3098630860349226E-07
  7.0637314881751165E-02  6.5235532266828669E-02  4.2701205519514273E-07
  7.1341053328270052E-02  6.5072585505100200E-02  4.2307962102911671E-07
  7.2051802910502921E-02  6.4911905523229174E-02  4.1918891841190882E-07
  7.2769633478298554E-02  6.4754437712359308E-02  4.1533985865545159E-07
  7.3494615577398642E-02  6.4579130460646547E-02  4.1153235041242890E-07
  7.4226820456371218E-02  6.4403833154520709E-02  4.0776629846285954E-07
  7.4966320073612466E-02  6.4228302124164291E-02  4.0404160280106383E-07
  7.5713187104418489E-02  6.4040031001547149E-02  4.0035815797634910E-07
  7.6467494948127615E-02  6.3835132237218331E-02  3.9671585571933449E-07
  7.7229317735333966E-02  6.3668583129114276E-02  3.9311460045225526E-07
  7.7998730335172461E-02  6.3498784896380847E-02  3.8955434682504040E-07
  7.8775808362676877E-02  6.3331884981839212E-02  3.8603516036469289E-07
  7.9560628186210972E-02  6.3195323785501981E-02  3.8255729206388738E-07
  8.0353266934973772E-02  6.3035072672485856E-02  3.7912124980393035E-07
  8.1153802506579192E-02  6.2884415881679312E-02  3.7572784876677225E-07
  8.1962313574712023E-02  6.2716749156846552E-02  3.7237822921560237E-07
  8.2778879596859409E-02  6.2557153851059380E-02  3.6907384010735980E-07
  8.3603580822119591E-02  6.2379922554485753E-02  3.6581639614447712E-07
  8.4436498299088600E-02  6.2212033023463974E-02  3.6260782039133009E-07
  8.5277713883825504E-02  6.2040547279470969E-02  3.5945018417506677E-07
  8.6127310247896688E-02  6.1871335978628837E-02  3.5634565212097890E-07
  8.6985370886500643E-02  6.1706514906548632E-02  3.5329643010607059E-07
  8.7851980126673612E-02  6.1547488931475373E-02  3.5030471223646762E-07
  8.8727223135576988E-02  6.1375367457849453E-02  3.4737262374963253E-07
  8.9611185928866799E-02  6.1221842877674709E-02  3.4450215883018095E-07
  9.0503955379147627E-02  6.1059567804657773E-02  3.4169511888387753E-07
  9.1405619224509793E-02  6.0897907774421764E-02  3.3895306723175775E-07
  9.2316266077151890E-02  6.0737649789011763E-02  3.3627730568428145E-07
  9.3235985432089344E-02  6.0582191431459778E-02  3.3366887545360593E-07
  9.4164867675949782E-02  6.0417055771240659E-02  3.3112857998328890E-07
  9.5103004095855689E-02  6.0262647387454009E-02  3.2865702239235633E-07
  9.6050486888395778E-02  6.0111956758890320E-02  3.2625464865525360E-07
  9.7007409168685971E-02  5.9939190438544329E-02  3.2392179026629529E-07
  9.7973864979520237E-02  5.9788989236328131E-02  3.2165871573595133E-07
  9.8949949300612558E-02  5.9629827737779341E-02  3.1946571388867409E-07
  9.9935758057931617E-02  5.9475940019020929E-02  3.1734322559060331E-07
  1.0093138813312785E-01  5.9324730474846224E-02  3.1529202509290326E-07
  1.0193693737305451E-01  5.9168019441316867E-02  3.1331343384481394E-07
  1.0295250459938372E-01  5.9017340155075544E-02  3.1140952603598999E-07
  1.0397818961831866E-01  5.8872441528502864E-02  3.0958328498612094E-07
  1.0501409323040158E-01  5.8711580511251582E-02  3.0783868196465974E-07
  1.0606031724042043E-01  5.8558179692341686E-02  3.0618066822027483E-07
  1.0711696446741398E-01  5.8396989017576742E-02  3.0461509399462312E-07
  1.0818413875477634E-01  5.8230562222441939E-02  3.0314858291510084E-07
  1.0926194498046198E-01  5.8081334898708092E-02  3.0178839412652788E-07
  1.1035048906729342E-01  5.7930114078338146E-02  3.0054229111392981E-07
  1.1144987799337053E-01  5.7766020290141960E-02  2.9941841016868271E-07
  1.1256021980258388E-01  5.7626247173308012E-02  2.9842512275497888E-07
  1.1368162361523301E-01  5.7479695455317469E-02  2.9757088162424312E-07
  1.1481419963875057E-01  5.7339006246350771E-02  2.9686404078652289E-07
  1.1595805917853272E-01  5.7201962273678006E-02  2.9631267649988724E-07
  1.1711331464887799E-01  5.7067256190529832E-02  2.9592444837023636E-07
  1.1828007958403514E-01  5.6933428074897194E-02  2.9570651672012534E-07
  1.1945846864936054E-01  5.6809937304148503E-02  2.9566553430263862E-07
  1.2064859765258716E-01  5.6687734127293894E-02  2.9580771342851959E-07
  1.2185058355520599E-01  5.6547187717081504E-02  2.9613895264019609E-07
  1.2306454448396033E-01  5.6428290509999347E-02  2.9666499808277972E-07
  1.2429059974245478E-01  5.6298877395675746E-02  2.9739161013729367E-07
  1.2552886982288008E-01  5.6172772654614803E-02  2.9832471228977657E-07
  1.2677947641785486E-01  5.6043263034656142E-02  2.9947049301279577E-07
  1.2804254243238472E-01  5.5911740144418624E-02  3.0083544535322685E-07
  1.2931819199594097E-01  5.5770561534025126E-02  3.0242634960019074E-07
  1.3060655047466005E-01  5.5649504145110773E-02  3.0425021194494483E-07
  1.3190774448366366E-01  5.5514298183666377E-02  3.0631416184360289E-07
  1.3322190189950173E-01  5.5398472752758790E-02  3.0862534865465455E-07
  1.3454915187272043E-01  5.5272531022287755E-02  3.1119087021522657E-07
  1.3588962484055420E-01  5.5142014486476869E-02  3.1401775245647352E-07
  1.3724345253974427E-01  5.5034511676563175E-02  3.1711298410266938E-07
  1.3861076801948594E-01  5.4918970978262378E-02  3.2048359597215341E-07
  1.3999170565450400E-01  5.4816918846205508E-02  3.2413676379782282E-07
  1.4138640115825790E-01  5.4709277258887516E-02  3.2807990852288672E-07
  1.4279499159628023E-01  5.4594110423232839E-02  3.3232075341167567E-07
  1.4421761539964642E-01  5.4488267273524772E-02  3.3686729502876599E-07
  1.4565441237857876E-01  5.4371920660370783E-02  3.4172766288778716E-07
  1.4710552373618802E-01  5.4253507456830385E-02  3.4690986325687577E-07
  1.4857109208234845E-01  5.4130585043056047E-02  3.5242139738459485E-07
  1.5005126144771377E-01  5.4017095598586001E-02  3.5826879765207918E-07
  1.5154617729787306E-01  5.3898478807051640E-02  3.6445715167689257E-07
  1.5305598654764443E-01  5.3774126878590900E-02  3.7098968448513069E-07
  1.5458083757551497E-01  5.3657072499177109E-02  3.7786745377837871E-07
  1.5612088023822232E-01  5.3545662766212754E-02  3.8508917862503138E-07
  1.5767626588548153E-01  5.3417479829532100E-02  3.9265117827044634E-07
  1.5924714737486007E-01  5.3308456590935319E-02  4.0054738034516926E-07
  1.6083367908679960E-01  5.3190759456441569E-02  4.0876937289015256E-07
  1.6243601693978757E-01  5.3070749932447633E-02  4.1730645882284474E-07
  1.6405431840568108E-01  5.2935405099786184E-02  4.2614571782289009E-07
  1.6568874252518231E-01  5.2820075919604685E-02  4.3527213043123475E-07
  1.6733944992346794E-01  5.2696957613178545E-02  4.4466874325234585E-07
  1.6900660282597568E-01  5.2580596483587282E-02  4.5431685065599326E-07
  1.7069036507434682E-01  5.2456632215007418E-02  4.6419620751118787E-07
  1.7239090214252736E-01  5.2338962101786589E-02  4.7428522903261066E-07
  1.7410838115303137E-01  5.2217886498515123E-02  4.8456112467607956E-07
  1.7584297089336445E-01  5.2094953512244309E-02  4.9499992527724338E-07
  1.7759484183261098E-01  5.1976586597856048E-02  5.0557639358184800E-07
  1.7936416613818912E-01  5.1846488404584820E-02  5.1626384923058013E-07
  1.8115111769276845E-01  5.1733595062313321E-02  5.2703395028104935E-07
  1.8295587211135961E-01  5.1609180203502886E-02  5.3785651568904085E-07
  1.8477860675857408E-01  5.1481662025893736E-02  5.4869946085541263E-07
  1.8661950076605277E-01  5.1356064422388825E-02  5.5952888719335197E-07
  1.8847873505007223E-01  5.1228195134372247E-02  5.7030937024610592E-07
  1.9035649232932378E-01  5.1094478388929394E-02  5.8100450190249449E-07
