 #p(MeV) \t \delta f_\\nu \t \delta f_\\nubar
  6.3737258017356538E-02  9.9232427252647692E-02  2.1226975111545801E-06
  6.4372253260559037E-02  9.8985287279367201E-02  2.1038002550869778E-06
  6.5013574771496149E-02  9.8752177275631195E-02  2.0850515487320077E-06
  6.5661285576881723E-02  9.8541328877137929E-02  2.0664508879001583E-06
  6.6315449331345797E-02  9.8365132239972702E-02  2.0479978570590000E-06
  6.6976130323690555E-02  9.8147195663925615E-02  2.0296921053350124E-06
  6.7643393483208233E-02  9.7920259647393676E-02  2.0115333235408322E-06
  6.8317304386062150E-02  9.7643075858845546E-02  1.9935212371035734E-06
  6.8997929261731483E-02  9.7403305369428414E-02  1.9756556088017314E-06
  6.9685334999519719E-02  9.7160092687987365E-02  1.9579362004953190E-06
  7.0379589155128638E-02  9.6963282755325980E-02  1.9403626878976228E-06
  7.1080759957297179E-02  9.6749290762909973E-02  1.9229345711143541E-06
  7.1788916314506790E-02  9.6525588591296452E-02  1.9056511197854980E-06
  7.2504127821753639E-02  9.6288912874290880E-02  1.8885113637872615E-06
  7.3226464767387853E-02  9.6046848756068601E-02  1.8715141176062715E-06
  7.3955998140021559E-02  9.5794385999925999E-02  1.8546580206699471E-06
  7.4692799635505083E-02  9.5580811181153677E-02  1.8379415801527813E-06
  7.5436941663973037E-02  9.5347334381020124E-02  1.8213632081392575E-06
  7.6188497356960691E-02  9.5119261257431129E-02  1.8049212579906853E-06
  7.6947540574590786E-02  9.4905501721158678E-02  1.7886140505528813E-06
  7.7714145912832530E-02  9.4704211288336962E-02  1.7724398651628949E-06
  7.8488388710832344E-02  9.4471976463439702E-02  1.7563969350464039E-06
  7.9270345058318023E-02  9.4286124998502058E-02  1.7404834890031178E-06
  8.0060091803076730E-02  9.4069331128299349E-02  1.7246978265860074E-06
  8.0857706558506950E-02  9.3837428700016032E-02  1.7090383891070612E-06
  8.1663267711246434E-02  9.3604250062317804E-02  1.6935037996456135E-06
  8.2476854428875451E-02  9.3397704881460236E-02  1.6780928682715425E-06
  8.3298546667697149E-02  9.3171233095343239E-02  1.6628045737050369E-06
  8.4128425180595615E-02  9.2942045448157234E-02  1.6476380342062633E-06
  8.4966571524971557E-02  9.2731760662005724E-02  1.6325924774873300E-06
  8.5813068070757850E-02  9.2517703913841745E-02  1.6176672105954034E-06
  8.6667998008514269E-02  9.2298046569535649E-02  1.6028615894908332E-06
  8.7531445357603266E-02  9.2077483677325114E-02  1.5881750165310464E-06
  8.8403494974447189E-02  9.1852832952530689E-02  1.5736069614520382E-06
  8.9284232560867371E-02  9.1627587141734260E-02  1.5591569666837072E-06
  9.0173744672506981E-02  9.1394159339756822E-02  1.5448246214572848E-06
  9.1072118727336976E-02  9.1214588490352841E-02  1.5306095180399302E-06
  9.1979443014247500E-02  9.0988896656973808E-02  1.5165112113830305E-06
  9.2895806701724579E-02  9.0803525848389841E-02  1.5025291955454538E-06
  9.3821299846613110E-02  9.0600129703714630E-02  1.4886628970714345E-06
  9.4756013402967368E-02  9.0372774836738196E-02  1.4749116799459498E-06
  9.5700039230989839E-02  9.0141388746432655E-02  1.4612748559966925E-06
  9.6653470106058528E-02  8.9898006076548728E-02  1.4477516967665752E-06
  9.7616399727845055E-02  8.9678978117862573E-02  1.4343414461604458E-06
  9.8588922729522549E-02  8.9460243419657373E-02  1.4210433290629699E-06
  9.9571134687066409E-02  8.9245087884176677E-02  1.4078565606520073E-06
  1.0056313212864673E-01  8.9033399950451078E-02  1.3947803713603791E-06
  1.0156501254411492E-01  8.8847416831435946E-02  1.3818140470835213E-06
  1.0257687439458475E-01  8.8648292532932813E-02  1.3689569686851577E-06
  1.0359881712210850E-01  8.8462147923323312E-02  1.3562086353387635E-06
  1.0463094115944986E-01  8.8249407568571220E-02  1.3435686663072307E-06
  1.0567334793995427E-01  8.8034200035161408E-02  1.3310367861229694E-06
  1.0672613990751707E-01  8.7815262136098540E-02  1.3186128016526354E-06
  1.0778942052665171E-01  8.7600170401107957E-02  1.3062965780402679E-06
  1.0886329429265738E-01  8.7386544738629349E-02  1.2940880175032416E-06
  1.0994786674188899E-01  8.7168338583006377E-02  1.2819870432357230E-06
  1.1104324446212839E-01  8.6967817369757699E-02  1.2699935848909638E-06
  1.1214953510305962E-01  8.6763693875207062E-02  1.2581075489921751E-06
  1.1326684738684852E-01  8.6552527636778093E-02  1.2463287649632802E-06
  1.1439529111882718E-01  8.6342117018060216E-02  1.2346569192281800E-06
  1.1553497719828539E-01  8.6141690697470852E-02  1.2230915014824661E-06
  1.1668601762936955E-01  8.5953182499532169E-02  1.2116317813755130E-06
  1.1784852553208967E-01  8.5769984596236470E-02  1.2002768184377667E-06
  1.1902261515343689E-01  8.5576814753142466E-02  1.1890254952759225E-06
  1.2020840187861055E-01  8.5352657899083764E-02  1.1778765603186276E-06
  1.2140600224235863E-01  8.5115568194617505E-02  1.1668286695782812E-06
  1.2261553394042976E-01  8.4865361745459611E-02  1.1558804220783295E-06
  1.2383711584114004E-01  8.4647086079873576E-02  1.1450303877110554E-06
  1.2507086799705530E-01  8.4435599429656311E-02  1.1342771311551087E-06
  1.2631691165678902E-01  8.4248672817122131E-02  1.1236192469081579E-06
  1.2757536927691826E-01  8.4096087538798894E-02  1.1130554100787612E-06
  1.2884636453401871E-01  8.3915938424109979E-02  1.1025844274166070E-06
  1.3013002233681834E-01  8.3723072992225436E-02  1.0922052704980693E-06
  1.3142646883847384E-01  8.3517007870948970E-02  1.0819170820759855E-06
  1.3273583144896772E-01  8.3316971960987349E-02  1.0717191583331716E-06
  1.3405823884763038E-01  8.3098953668929207E-02  1.0616109170456600E-06
  1.3539382099578570E-01  8.2899046362067283E-02  1.0515918626882318E-06
  1.3674270914952333E-01  8.2677038487278504E-02  1.0416615556882142E-06
  1.3810503587259831E-01  8.2500465865545033E-02  1.0318195886535206E-06
  1.3948093504945858E-01  8.2294223032278443E-02  1.0220655689253411E-06
  1.4087054189840273E-01  8.2099590338142930E-02  1.0123991036404789E-06
  1.4227399298486906E-01  8.1896778176905258E-02  1.0028197755714125E-06
  1.4369142623485626E-01  8.1702106984395853E-02  9.9332710803737549E-07
  1.4512298094847872E-01  8.1506935060441502E-02  9.8392053806295973E-07
  1.4656879781365595E-01  8.1304118058967298E-02  9.7459941396519557E-07
  1.4802901891993944E-01  8.1097755126014040E-02  9.6536301796108985E-07
  1.4950378777247619E-01  8.0899425853933393E-02  9.5621060229345030E-07
  1.5099324930611199E-01  8.0697760245591638E-02  9.4714142470147936E-07
  1.5249754989963551E-01  8.0506678856791261E-02  9.3815477399371134E-07
  1.5401683739016320E-01  8.0307582466063426E-02  9.2924998325788752E-07
  1.5555126108766851E-01  8.0106175689817261E-02  9.2042643279876813E-07
  1.5710097178965576E-01  7.9916761029206279E-02  9.1168354688392295E-07
  1.5866612179597939E-01  7.9736128375581902E-02  9.0302078910849327E-07
  1.6024686492381210E-01  7.9556646198705575E-02  8.9443766536434297E-07
  1.6184335652276069E-01  7.9365571136395113E-02  8.8593373655622107E-07
  1.6345575349013408E-01  7.9173248092004614E-02  8.7750862309500534E-07
  1.6508421428636180E-01  7.8965159519363809E-02  8.6916198503953583E-07
  1.6672889895056733E-01  7.8757405722402266E-02  8.6089347870714285E-07
  1.6838996911629631E-01  7.8546689022613608E-02  8.5270270442892993E-07
  1.7006758802740080E-01  7.8361975197958025E-02  8.4458916375932713E-07
  1.7176192055408260E-01  7.8166099242126044E-02  8.3655223681718723E-07
  1.7347313320909621E-01  7.7995847495093501E-02  8.2859118015323099E-07
  1.7520139416411262E-01  7.7805167654042662E-02  8.2070513968869786E-07
  1.7694687326624728E-01  7.7617212791009027E-02  8.1289317151038254E-07
  1.7870974205475118E-01  7.7457102517290211E-02  8.0515426421240975E-07
  1.8049017377787002E-01  7.7279950621391758E-02  7.9748735534551826E-07
  1.8228834340986974E-01  7.7082707954721788E-02  7.8989133811546433E-07
  1.8410442766823248E-01  7.6885577037063793E-02  7.8236507256066196E-07
  1.8593860503102413E-01  7.6686658640195665E-02  7.7490741663912987E-07
  1.8779105575443394E-01  7.6484115047083065E-02  7.6751727868251634E-07
  1.8966196189048962E-01  7.6271202920990863E-02  7.6019367846743405E-07
  1.9155150730494908E-01  7.6091601747779986E-02  7.5293579796780880E-07
  1.9345987769536951E-01  7.5909624716923710E-02  7.4574300764533064E-07
  1.9538726060935743E-01  7.5727623893898935E-02  7.3861486688443490E-07
  1.9733384546300015E-01  7.5541043221280552E-02  7.3155110471093941E-07
  1.9929982355948084E-01  7.5349032624082796E-02  7.2455158976042992E-07
  2.0128538810787899E-01  7.5154572099727715E-02  7.1761629733487729E-07
  2.0329073424215827E-01  7.4951009310669781E-02  7.1074528048937896E-07
  2.0531605904034400E-01  7.4772508102153606E-02  7.0393865209393105E-07
  2.0736156154389068E-01  7.4587172208567920E-02  6.9719657184608017E-07
  2.0942744277724323E-01  7.4420877623868967E-02  6.9051922522319028E-07
  2.1151390576759338E-01  7.4270157711351661E-02  6.8390678801296308E-07
  2.1362115556483177E-01  7.4102356877705611E-02  6.7735938015920535E-07
  2.1574939926169970E-01  7.3918778619432676E-02  6.7087702005879327E-07
  2.1789884601414175E-01  7.3722705312569886E-02  6.6445959336041815E-07
  2.2006970706186074E-01  7.3524066497229354E-02  6.5810684131761060E-07
  2.2226219574907718E-01  7.3330078503998197E-02  6.5181836680124147E-07
  2.2447652754549630E-01  7.3133029426171253E-02  6.4559365229873016E-07
  2.2671292006748381E-01  7.2952547144148561E-02  6.3943208346511965E-07
  2.2897159309945203E-01  7.2770388029966451E-02  6.3333297269013947E-07
  2.3125276861545946E-01  7.2590452048396870E-02  6.2729557533250548E-07
  2.3355667080102632E-01  7.2411776849220275E-02  6.2131909581947940E-07
  2.3588352607516569E-01  7.2226744896360245E-02  6.1540269095481575E-07
  2.3823356311263544E-01  7.2051193788394086E-02  6.0954547848207965E-07
  2.4060701286641217E-01  7.1877413499026516E-02  6.0374655502942173E-07
  2.4300410859038782E-01  7.1709712956091090E-02  5.9800502211021078E-07
  2.4542508586229272E-01  7.1527472167054462E-02  5.9232001237029781E-07
  2.4787018260684793E-01  7.1340286944383144E-02  5.8669070946345577E-07
  2.5033963911914758E-01  7.1171501934807382E-02  5.8111635895505906E-07
  2.5283369808827366E-01  7.0989695420686061E-02  5.7559627031643961E-07
  2.5535260462114684E-01  7.0788872826365257E-02  5.7012981244901184E-07
  2.5789660626661520E-01  7.0604858057015260E-02  5.6471640575785306E-07
  2.6046595303978165E-01  7.0434747295887362E-02  5.5935551492155383E-07
  2.6306089744657457E-01  7.0258621320853754E-02  5.5404664726246208E-07
  2.6568169450856399E-01  7.0084702978444963E-02  5.4878935492358775E-07
  2.6832860178802331E-01  6.9897312648418738E-02  5.4358323492101008E-07
  2.7100187941324172E-01  6.9735157346760446E-02  5.3842792240162593E-07
  2.7370179010408879E-01  6.9576496831033174E-02  5.3332307595126141E-07
  2.7642859919783391E-01  6.9395953323141538E-02  5.2826835843281169E-07
  2.7918257467522201E-01  6.9226029151398097E-02  5.2326341911470753E-07
  2.8196398718680993E-01  6.9045148211149585E-02  5.1830788062010252E-07
  2.8477311007956568E-01  6.8856413450297513E-02  5.1340133247191561E-07
  2.8761021942373083E-01  6.8663499310875814E-02  5.0854333060010604E-07
  2.9047559403995221E-01  6.8489837673213830E-02  5.0373340078714345E-07
  2.9336951552668378E-01  6.8309025263814036E-02  4.9897104404612201E-07
  2.9629226828786059E-01  6.8126713187649277E-02  4.9425574137300413E-07
  2.9924413956084878E-01  6.7966457903263458E-02  4.8958695742714490E-07
  3.0222541944467451E-01  6.7806723560622825E-02  4.8496414645402361E-07
  3.0523640092853421E-01  6.7641099742597785E-02  4.8038676323814155E-07
  3.0827737992058768E-01  6.7461815249179075E-02  4.7585427915056739E-07
  3.1134865527703909E-01  6.7278288688061155E-02  4.7136620051859486E-07
  3.1445052883150826E-01  6.7109349665480614E-02  4.6692208401950308E-07
  3.1758330542469254E-01  6.6941473384675709E-02  4.6252154590416551E-07
  3.2074729293432591E-01  6.6757555256091367E-02  4.5816426382707577E-07
  3.2394280230543665E-01  6.6590137900208013E-02  4.5384997221525411E-07
  3.2717014758090546E-01  6.6414337165241963E-02  4.4957845369922382E-07
  3.3042964593232738E-01  6.6241013520632830E-02  4.4534952888344291E-07
  3.3372161769118414E-01  6.6067547022218759E-02  4.4116304613706253E-07
  3.3704638638032419E-01  6.5890838326042228E-02  4.3701887339613753E-07
  3.4040427874575691E-01  6.5725427578995854E-02  4.3291689269301572E-07
  3.4379562478876463E-01  6.5556244369887870E-02  4.2885699684520817E-07
  3.4722075779833417E-01  6.5398513221014185E-02  4.2483908718388483E-07
  3.5068001438391039E-01  6.5235526909692393E-02  4.2086307091232938E-07
  3.5417373450847739E-01  6.5072580144398748E-02  4.1692885865441051E-07
  3.5770226152196916E-01  6.4911900158975480E-02  4.1303636221268874E-07
  3.6126594219501262E-01  6.4754432344577506E-02  4.0918549238936864E-07
  3.6486512675300575E-01  6.4579125089100575E-02  4.0537615726443101E-07
  3.6850016891053833E-01  6.4403827779193970E-02  4.0160826097334694E-07
  3.7217142590615293E-01  6.4228296745036426E-02  3.9788170281858020E-07
  3.7587925853745230E-01  6.4040025618442839E-02  3.9419637668763993E-07
  3.7962403119655780E-01  6.3835126849913479E-02  3.9055217365474748E-07
  3.8340611190592139E-01  6.3668577738063697E-02  3.8694899732313891E-07
  3.8722587235449180E-01  6.3498779501524286E-02  3.8338680150778337E-07
  3.9108368793424381E-01  6.3331879583192072E-02  3.7986565107587242E-07
  3.9497993777707041E-01  6.3195318383418839E-02  3.7638579646556858E-07
  3.9891500479204262E-01  6.3035067266652048E-02  3.7294774503762228E-07
  4.0288927570303879E-01  6.2884410472191746E-02  3.6955231145760176E-07
  4.0690314108675285E-01  6.2716743743472275E-02  3.6620063549672671E-07
  4.1095699541107739E-01  6.2557148433875345E-02  3.6289416568755973E-07
  4.1505123707386998E-01  6.2379917133250341E-02  3.5963461639230322E-07
  4.1918626844210738E-01  6.2212027598269465E-02  3.5642391040725715E-07
  4.2336249589142855E-01  6.2040541850249022E-02  3.5326411884878692E-07
  4.2758032984607064E-01  6.1871330545383955E-02  3.5015740623049928E-07
  4.3184018481920527E-01  6.1706509469311589E-02  3.4710597854687328E-07
  4.3614247945367468E-01  6.1547483490294770E-02  3.4411203027749295E-07
  4.4048763656313533E-01  6.1375362012539486E-02  3.4117768706092704E-07
  4.4487608317360805E-01  6.1221837428443796E-02  3.3830494338954208E-07
  4.4930825056544754E-01  6.1059562351374608E-02  3.3549560100525746E-07
  4.5378457431572561E-01  6.0897902317071810E-02  3.3275122358777893E-07
  4.5830549434103790E-01  6.0737644327590386E-02  3.3007311322677418E-07
  4.6287145494073717E-01  6.0582185966005002E-02  3.2746231130417802E-07
  4.6748290484059868E-01  6.0417050301610070E-02  3.2491962134184161E-07
  4.7214029723691786E-01  6.0262641913759470E-02  3.2244564647080406E-07
  4.7684408984104903E-01  6.0111951281156303E-02  3.2004083262896749E-07
  4.8159474492438858E-01  5.9939184956473560E-02  3.1770551123089718E-07
  4.8639272936380468E-01  5.9788983750180019E-02  3.1543995065789769E-07
  4.9123851468751878E-01  5.9629822247419688E-02  3.1324443941291938E-07
  4.9613257712144837E-01  5.9475934524492666E-02  3.1111941784482463E-07
  5.0107539763600717E-01  5.9324724976159537E-02  3.0906565977704116E-07
  5.0606746199337294E-01  5.9168013938379366E-02  3.0708448612200174E-07
  5.1110926079522634E-01  5.9017334647938069E-02  3.0517797031033723E-07
  5.1620128953096733E-01  5.8872436017212836E-02  3.0334909500759749E-07
  5.2134404862640737E-01  5.8711574995583757E-02  3.0160183103003576E-07
  5.2653804349295052E-01  5.8558174172363593E-02  2.9994112927448133E-07
  5.3178378457726427E-01  5.8396983493164578E-02  2.9837283965650995E-07
  5.3708178741144408E-01  5.8230556693503584E-02  2.9690358547892826E-07
  5.4243257266367562E-01  5.8081329365432283E-02  2.9554062551153813E-07
  5.4783666618940774E-01  5.7930108540672626E-02  2.9429172270994508E-07
  5.5329459908302958E-01  5.7766014747897304E-02  2.9316501280358903E-07
  5.5880690773006436E-01  5.7626241626761443E-02  2.9216886694794371E-07
  5.6437413385988378E-01  5.7479689904355542E-02  2.9131173761513574E-07
  5.6999682459894840E-01  5.7339000691018605E-02  2.9060197857439458E-07
  5.7567553252457493E-01  5.7201956713993078E-02  2.9004766626174111E-07
  5.8141081571924269E-01  5.7067250626493413E-02  2.8965646049737588E-07
  5.8720323782544115E-01  5.6933422506492130E-02  2.8943552157717649E-07
  5.9305336810105991E-01  5.6809931731476693E-02  2.8939150210278212E-07
  5.9896178147533508E-01  5.6687728550343208E-02  2.8953061423380717E-07
  6.0492905860535140E-01  5.6547182135592101E-02  2.8985875638842984E-07
  6.1095578593310618E-01  5.6428284924215574E-02  2.9038167462741172E-07
  6.1704255574314293E-01  5.6298871805436301E-02  2.9110512934361054E-07
  6.2318996622075862E-01  5.6172767059932731E-02  2.9203504405736375E-07
  6.2939862151079240E-01  5.6043257435459508E-02  2.9317760701193695E-07
  6.3566913177699713E-01  5.5911734540652576E-02  2.9453931073568102E-07
  6.4200211326200407E-01  5.5770555925537479E-02  2.9612693497919676E-07
  6.4839818834788709E-01  5.5649498532125467E-02  2.9794748505184638E-07
  6.5485798561732611E-01  5.5514292565972317E-02  3.0000808926640801E-07
  6.6138213991538075E-01  5.5398467130568889E-02  3.0231589589681149E-07
  6.6797129241188402E-01  5.5272525395440177E-02  3.0487800176427123E-07
  6.7462609066445223E-01  5.5142008854878861E-02  3.0770143177262802E-07
  6.8134718868212274E-01  5.5034506040471380E-02  3.1079317358727866E-07
  6.8813524698963113E-01  5.4918965337538282E-02  3.1416025695517971E-07
  6.9499093269232370E-01  5.4816913200983232E-02  3.1780985658382224E-07
  7.0191491954171559E-01  5.4709271609057968E-02  3.2174939248908174E-07
  7.0890788800170890E-01  5.4594104768661403E-02  3.2598658723938557E-07
  7.1597052531546446E-01  5.4488261614291073E-02  3.3052943704667973E-07
  7.2310352557293767E-01  5.4371914996301500E-02  3.3538607113363520E-07
  7.3030758977910049E-01  5.4253501787859343E-02  3.4056449557953393E-07
  7.3758342592282289E-01  5.4130579369086121E-02  3.4607221172190252E-07
  7.4493174904645609E-01  5.4017089919697878E-02  3.5191575221246814E-07
  7.5235328131610968E-01  5.3898473123140750E-02  3.5810020504805463E-07
  7.5984875209261227E-01  5.3774121189545068E-02  3.6462879571660615E-07
  7.6741889800319962E-01  5.3657066805051189E-02  3.7150258242486162E-07
  7.7506446301390441E-01  5.3545657067040987E-02  3.7872028474794096E-07
  7.8278619850266795E-01  5.3417474125062051E-02  3.8627822231169933E-07
  7.9058486333318811E-01  5.3308450881374800E-02  3.9417032293080365E-07
  7.9846122392949415E-01  5.3190753741641922E-02  4.0238817465372741E-07
  8.0641605435126695E-01  5.3070744212341314E-02  4.1092108017720170E-07
  8.1445013636991470E-01  5.2935399374138138E-02  4.1975611897639801E-07
  8.2256425954540058E-01  5.2820070188633717E-02  4.2887827151351784E-07
  8.3075922130383484E-01  5.2696951876746174E-02  4.3827058420317723E-07
  8.3903582701584822E-01  5.2580590741741658E-02  4.4791435101336909E-07
  8.4739489007573843E-01  5.2456626467611303E-02  4.5778932617499882E-07
  8.5583723198140438E-01  5.2338956348880805E-02  4.6787392404687455E-07
  8.6436368241508588E-01  5.2217880740014662E-02  4.7814535311747448E-07
  8.7297507932489871E-01  5.2094947748083154E-02  4.8857964325560683E-07
  8.8167226900718154E-01  5.1976580828050331E-02  4.9915155632934023E-07
  8.9045610618967663E-01  5.1846482628939324E-02  5.0983441124903644E-07
  8.9932745411551807E-01  5.1733589281006340E-02  5.2059986538651572E-07
  9.0828718462807290E-01  5.1609174416340560E-02  5.3141773709422424E-07
  9.1733617825662828E-01  5.1481656232790343E-02  5.4225594109115306E-07
  9.2647532430291524E-01  5.1356058623322653E-02  5.5308057776026311E-07
  9.3570552092851544E-01  5.1228189329266191E-02  5.6385622144962502E-07
  9.4502767524312614E-01  5.1094472577658749E-02  5.7454646289964327E-07
