 #p(MeV) \t \delta f_\\nu \t \delta f_\\nubar
  1.5966568593868313E-01  9.9232416109894181E-02  2.1089252650948545E-06
  1.6125638742518447E-01  9.8985276127721872E-02  2.0900261464991219E-06
  1.6286293659495141E-01  9.8752166115461587E-02  2.0712755604482531E-06
  1.6448549133371385E-01  9.8541317709034723E-02  2.0526729983192983E-06
  1.6612421110016956E-01  9.8365121064875771E-02  2.0342180408301793E-06
  1.6777925694165602E-01  9.8147184480638722E-02  2.0159103338784487E-06
  1.6945079150997697E-01  9.7920248455634268E-02  1.9977495654613891E-06
  1.7113897907738734E-01  9.7643064657184656E-02  1.9797354586535841E-06
  1.7284398555273778E-01  9.7403294158867809E-02  1.9618677744456727E-06
  1.7456597849777877E-01  9.7160081468388379E-02  1.9441462735362771E-06
  1.7630512714362881E-01  9.6963271527942138E-02  1.9265706311790769E-06
  1.7806160240740515E-01  9.6749279527224563E-02  1.9091403477942539E-06
  1.7983557690902116E-01  9.6525577347002109E-02  1.8918546941324980E-06
  1.8162722498815112E-01  9.6288901620991699E-02  1.8747127019008782E-06
  1.8343672272136285E-01  9.6046837493577994E-02  1.8577131877405879E-06
  1.8526424793942298E-01  9.5794374727921031E-02  1.8408547926933462E-06
  1.8710998024477235E-01  9.5580799900683286E-02  1.8241360248652565E-06
  1.8897410102917736E-01  9.5347323091497294E-02  1.8075552967473068E-06
  1.9085679349155657E-01  9.5119249958972793E-02  1.7911109616384540E-06
  1.9275824265598426E-01  9.4905490414130947E-02  1.7748013398587021E-06
  1.9467863538987459E-01  9.4704199973051684E-02  1.7586247097523435E-06
  1.9661816042234556E-01  9.4471965139001204E-02  1.7425793030611245E-06
  1.9857700836276701E-01  9.4286113666162560E-02  1.7266633465696834E-06
  2.0055537171949323E-01  9.4069319787160849E-02  1.7108751372409874E-06
  2.0255344491878116E-01  9.3837417349609709E-02  1.6952131132064345E-06
  2.0457142432389896E-01  9.3604238702565151E-02  1.6796758938244897E-06
  2.0660950825442298E-01  9.3397693513053603E-02  1.6642622851625505E-06
  2.0866789700572813E-01  9.3171221717674335E-02  1.6489712626973550E-06
  2.1074679286867259E-01  9.2942034061095039E-02  1.6338019427248508E-06
  2.1284640014947753E-01  9.2731749266025010E-02  1.6187535520778249E-06
  2.1496692518980623E-01  9.2517692508782265E-02  1.6038253978943020E-06
  2.1710857638704195E-01  9.2298035155182617E-02  1.5890168371350528E-06
  2.1927156421476887E-01  9.2077472253605658E-02  1.5743272739380552E-06
  2.2145610124345680E-01  9.1852821519276581E-02  1.5597561805530460E-06
  2.2366240216135108E-01  9.1627575698880706E-02  1.5453031026611938E-06
  2.2589068379557245E-01  9.1394147887029820E-02  1.5309676334975059E-06
  2.2814116513342492E-01  9.1214577029216995E-02  1.5167493700852252E-06
  2.3041406734391762E-01  9.0988885186102736E-02  1.5026478728311719E-06
  2.3270961379950073E-01  9.0803514368877417E-02  1.4886626417867760E-06
  2.3502803009801698E-01  9.0600118215032152E-02  1.4747931092651892E-06
  2.3736954408487296E-01  9.0372763338190373E-02  1.4610386439596157E-06
  2.3973438587543125E-01  9.0141377237885775E-02  1.4473985613844713E-06
  2.4212278787762453E-01  8.9897994557646840E-02  1.4338721358536298E-06
  2.4453498481479671E-01  8.9678966589270437E-02  1.4204586131862978E-06
  2.4697121374876968E-01  8.9460231881367133E-02  1.4071572194667200E-06
  2.4943171410314185E-01  8.9245076336271684E-02  1.3939671704263981E-06
  2.5191672768681705E-01  8.9033388393015056E-02  1.3808876963767681E-06
  2.5442649871776885E-01  8.8847405265172305E-02  1.3679180823677309E-06
  2.5696127384704182E-01  8.8648280957456999E-02  1.3550577076528152E-06
  2.5952130218299085E-01  8.8462136338977190E-02  1.3423060690449795E-06
  2.6210683531576284E-01  8.8249395974585407E-02  1.3296627828112247E-06
  2.6471812734202238E-01  8.8034188431438884E-02  1.3171275701545455E-06
  2.6735543488992281E-01  8.7815250522508423E-02  1.3047002347286404E-06
  2.7001901714432741E-01  8.7600158777725562E-02  1.2923806387018422E-06
  2.7270913587228029E-01  8.7386533105462447E-02  1.2801686815380379E-06
  2.7542605544873278E-01  8.7168326939887616E-02  1.2680642838862998E-06
  2.7817004288252462E-01  8.6967805717147753E-02  1.2560673730048732E-06
  2.8094136784262458E-01  8.6763682212965584E-02  1.2441778531375542E-06
  2.8374030268463318E-01  8.6552515964662180E-02  1.2323955515949912E-06
  2.8656712247754795E-01  8.6342105336048233E-02  1.2207201529250697E-06
  2.8942210503079668E-01  8.6141679005797819E-02  1.2091511452502062E-06
  2.9230553092153966E-01  8.5953170798488812E-02  1.1976877969681309E-06
  2.9521768352224304E-01  8.5769972885922419E-02  1.1863291665970961E-06
  2.9815884902852891E-01  8.5576803033231841E-02  1.1750741357788217E-06
  3.0112931648729974E-01  8.5352646168646087E-02  1.1639214518352401E-06
  3.0412937782514676E-01  8.5115556453237942E-02  1.1528697694476344E-06
  3.0715932787703820E-01  8.4865349992715902E-02  1.1419176860911670E-06
  3.1021946441529463E-01  8.4647074316611309E-02  1.1310637699152085E-06
  3.1331008817885370E-01  8.4435587656011266E-02  1.1203065836610355E-06
  3.1643150290282490E-01  8.4248661033728550E-02  1.1096447196838411E-06
  3.1958401534833969E-01  8.4096075746570742E-02  1.0990768507050121E-06
  3.2276793533269937E-01  8.3915926622203527E-02  1.0886017807891899E-06
  3.2598357575982184E-01  8.3723061180216454E-02  1.0782184784850037E-06
  3.2923125265099373E-01  8.3516996048393105E-02  1.0679260831831127E-06
  3.3251128517592665E-01  8.3316960127984979E-02  1.0577238875031786E-06
  3.3582399568412530E-01  8.3098941824893788E-02  1.0476113057616147E-06
  3.3916970973656552E-01  8.2899034507433661E-02  1.0375878394980707E-06
  3.4254875613768981E-01  8.2677026621339661E-02  1.0276530469986276E-06
  3.4596146696772173E-01  8.2500453989510406E-02  1.0178065194900520E-06
  3.4940817761529996E-01  8.2294211145222451E-02  1.0080478635183312E-06
  3.5288922681044010E-01  8.2099578440309587E-02  9.9837668592619333E-07
  3.5640495665782412E-01  8.1896766267982465E-02  9.8879256986091201E-07
  3.5995571267041998E-01  8.1702095064534533E-02  9.7929503982144259E-07
  3.6354184380343862E-01  8.1506923129544592E-02  9.6988353488723377E-07
  3.6716370248862679E-01  8.1304106116736316E-02  9.6055740637008906E-07
  3.7082164466890388E-01  8.1097743172279316E-02  9.5131594042330981E-07
  3.7451602983334198E-01  8.0899413888847249E-02  9.4215839399617820E-07
  3.7824722105249492E-01  8.0697748268993966E-02  9.3308402985355647E-07
  3.8201558501408067E-01  8.0506666868917026E-02  9.2409214152969666E-07
  3.8582149205901672E-01  8.0307570466628744E-02  9.1518206607320905E-07
  3.8966531621781625E-01  8.0106163678693137E-02  9.0635318684321286E-07
  3.9354743524734737E-01  7.9916749006679930E-02  8.9760493058207118E-07
  3.9746823066795589E-01  7.9736116341849975E-02  8.8893676331844757E-07
  4.0142808780096184E-01  7.9556634153750028E-02  8.8034819322461278E-07
  4.0542739580652520E-01  7.9365559079831005E-02  8.7183878286637392E-07
  4.0946654772189345E-01  7.9173236023746221E-02  8.6340815356023553E-07
  4.1354594050002563E-01  7.8965147438905356E-02  8.5505596542034974E-07
  4.1766597504860470E-01  7.8757393629704991E-02  8.4678187391715254E-07
  4.2182705626943756E-01  7.8546676917537445E-02  8.3858547772687830E-07
  4.2602959309824601E-01  7.8361963081191185E-02  8.3046627631691154E-07
  4.3027399854485626E-01  7.8166087113290525E-02  8.2242364783091568E-07
  4.3456068973378853E-01  7.7995835354867787E-02  8.1445684706289394E-07
  4.3889008794524903E-01  7.7805155501780049E-02  8.0656501857317288E-07
  4.4326261865653360E-01  7.7617200626722338E-02  7.9874721734662530E-07
  4.4767871158384032E-01  7.7457090341718812E-02  7.9100243028356858E-07
  4.5213880072450202E-01  7.7279938433978693E-02  7.8332959215820497E-07
  4.5664332439963656E-01  7.7082695754818409E-02  7.7572759295458577E-07
  4.6119272529722416E-01  7.6885564824599045E-02  7.6819528930596171E-07
  4.6578745051561349E-01  7.6686646415046078E-02  7.6073153564384077E-07
  4.7042795160745982E-01  7.6484102809061011E-02  7.5333523669424565E-07
  4.7511468462410256E-01  7.6271190669712829E-02  7.4600540853468305E-07
  4.7984811016038470E-01  7.6091589484118427E-02  7.3874122921109784E-07
  4.8462869339991754E-01  7.5909612440721086E-02  7.3154206481233956E-07
  4.8945690416079746E-01  7.5727611605055978E-02  7.2440747048729381E-07
  4.9433321694177834E-01  7.5541030919571123E-02  7.1733717168811892E-07
  4.9925811096890355E-01  7.5349020309244327E-02  7.1033103395706499E-07
  5.0423207024260175E-01  7.5154559771583376E-02  7.0338903046740382E-07
  5.0925558358525280E-01  7.4950996968853961E-02  6.9651121391798608E-07
  5.1432914468922897E-01  7.4772495747286699E-02  6.8969769827168069E-07
  5.1945325216541083E-01  7.4587159840347778E-02  6.8294864537282094E-07
  5.2462840959219048E-01  7.4420865242750545E-02  6.7626424387378159E-07
  5.2985512556496128E-01  7.4270145317691216E-02  6.6964467377334581E-07
  5.3513391374610009E-01  7.4102344470914155E-02  6.6309006027807943E-07
  5.4046529291544809E-01  7.3918766198964814E-02  6.5660042810815187E-07
  5.4584978702129561E-01  7.3722692877982790E-02  6.5017567026895274E-07
  5.5128792523187309E-01  7.3524054048371534E-02  6.4381553554521288E-07
  5.5678024198735521E-01  7.3330066040936240E-02  6.3751963290500472E-07
  5.6232727705238450E-01  7.3133016948749366E-02  6.3128744952374969E-07
  5.6792957556911772E-01  7.2952534652785977E-02  6.2511837440649186E-07
  5.7358768811079941E-01  7.2770375524552608E-02  6.1901172155332489E-07
  5.7930217073587054E-01  7.2590439528935277E-02  6.1296674619216104E-07
  5.8507358504261697E-01  7.2411764315682345E-02  6.0698265122415089E-07
  5.9090249822435970E-01  7.2226732348493930E-02  6.0105859056373767E-07
  5.9678948312519653E-01  7.2051181226402222E-02  5.9519367766529543E-07
  6.0273511829630100E-01  7.1877400922884457E-02  5.8938700341376542E-07
  6.0873998805277896E-01  7.1709700365896370E-02  5.8363766208450598E-07
  6.1480468253109177E-01  7.1527459562283346E-02  5.7794477759196223E-07
  6.2092979774705437E-01  7.1340274324792133E-02  5.7230752378666436E-07
  6.2711593565441004E-01  7.1171489300825660E-02  5.6672513698669251E-07
  6.3336370420398580E-01  7.0989682771810905E-02  5.6119691849962340E-07
  6.3967371740344137E-01  7.0788860161910216E-02  5.5572222997167680E-07
  6.4604659537761211E-01  7.0604845377346875E-02  5.5030048540677403E-07
  6.5248296442945064E-01  7.0434734601275403E-02  5.4493114394121683E-07
  6.5898345710157846E-01  7.0258608610982209E-02  5.3961370821139216E-07
  6.6554871223845102E-01  7.0084690253232537E-02  5.3434772655513642E-07
  6.7217937504913994E-01  6.9897299907318480E-02  5.2913279312290807E-07
  6.7887609717074104E-01  6.9735144590370016E-02  5.2396854122566228E-07
  6.8563953673241607E-01  6.9576484059306790E-02  5.1885462875267154E-07
  6.9247035842007154E-01  6.9395940535278047E-02  5.1379071912995736E-07
  6.9936923354168012E-01  6.9226016347564076E-02  5.0877646347571823E-07
  7.0633684009325448E-01  6.9045135390868928E-02  5.0381148676842437E-07
  7.1337386282548076E-01  6.8856400613190899E-02  4.9889538067580076E-07
  7.2048099331100957E-01  6.8663486456673958E-02  4.9402770304337250E-07
  7.2765893001242365E-01  6.8489824802345750E-02  4.8920798148470069E-07
  7.3490837835087996E-01  6.8309012375919673E-02  4.8443571894903164E-07
  7.4223005077543580E-01  6.8126700282544903E-02  4.7971039822398469E-07
  7.4962466683306417E-01  6.7966444981463342E-02  4.7503148542740507E-07
  7.5709295323937009E-01  6.7806710622002123E-02  4.7039843587064078E-07
  7.6463564395000938E-01  6.7641086786837598E-02  4.6581070492981567E-07
  7.7225348023281770E-01  6.7461802275731231E-02  4.6126776398138157E-07
  7.7994721074066065E-01  6.7278275696649056E-02  4.5676911862181293E-07
  7.8771759158500942E-01  6.7109336656398400E-02  4.5231432388959748E-07
  7.9556538641024666E-01  6.6941460357807431E-02  4.4790299377857811E-07
  8.0349136646871522E-01  6.6757542210800686E-02  4.4353480380513521E-07
  8.1149631069651595E-01  6.6590124836837419E-02  4.3920948651081414E-07
  8.1958100579005722E-01  6.6414324083383811E-02  4.3492682282755151E-07
  8.2774624628336602E-01  6.6241000420201965E-02  4.3068663159240162E-07
  8.3599283462617657E-01  6.6067533903048953E-02  4.2648875944602796E-07
  8.4432158126278967E-01  6.5890825187873744E-02  4.2233307289923217E-07
  8.5273330471171938E-01  6.5725414422005107E-02  4.1821945290168115E-07
  8.6122883164613517E-01  6.5556231193798636E-02  4.1414779156522712E-07
  8.6980899697510539E-01  6.5398500026006001E-02  4.1011798994965970E-07
  8.7847464392564600E-01  6.5235513695438160E-02  4.0612995550877081E-07
  8.8722662412559239E-01  6.5072566910737373E-02  4.0218359976486778E-07
  8.9606579768729344E-01  6.4911886905804420E-02  3.9827883593161977E-07
  9.0499303329214120E-01  6.4754419071837252E-02  3.9441557581330372E-07
  9.1400920827593790E-01  6.4579111796077351E-02  3.9059372776294627E-07
  9.2311520871512254E-01  6.4403814465722728E-02  3.8681319549196457E-07
  9.3231192951384856E-01  6.4228283410936976E-02  3.8307387733884403E-07
  9.4160027449193084E-01  6.4040012263156906E-02  3.7937566580092037E-07
  9.5098115647367043E-01  6.3835113472752891E-02  3.7571845004112056E-07
  9.6045549737756619E-01  6.3668564340031208E-02  3.7210213120736203E-07
  9.7002422830691315E-01  6.3498766082337940E-02  3.6852666010414385E-07
  9.7968828964131049E-01  6.3331866142757043E-02  3.6499209800373793E-07
  9.8944863112907877E-01  6.3195304922479031E-02  3.6149869111946311E-07
  9.9930621198059788E-01  6.3035053784282605E-02  3.5804694189364064E-07
  1.0092620009625706E+00  6.2884396968491157E-02  3.5463765931680862E-07
  1.0193169764932364E+00  6.2716730217705241E-02  3.5127197675901655E-07
  1.0294721267385216E+00  6.2557134886075796E-02  3.4795133575690114E-07
  1.0397284497091537E+00  6.2379903562647297E-02  3.4467744325242400E-07
  1.0500869533587429E+00  6.2212014004921053E-02  3.4145221427178520E-07
  1.0605486556828410E+00  6.2040528233801989E-02  3.3827771174196199E-07
  1.0711145848189831E+00  6.1871316905657760E-02  3.3515609152430540E-07
  1.0817857791477326E+00  6.1706495806185521E-02  3.3208955053277733E-07
  1.0925632873947271E+00  6.1547469803678069E-02  3.2908027379275642E-07
  1.1034481687337463E+00  6.1375348301743467E-02  3.2613037717909237E-07
  1.1144414928907975E+00  6.1221823693758996E-02  3.2324184518624756E-07
  1.1255443402492518E+00  6.1059548592227404E-02  3.2041646941153510E-07
  1.1367578019560158E+00  6.0897888533169763E-02  3.1765580319639372E-07
  1.1480829800287664E+00  6.0737630518650304E-02  3.1496113511805754E-07
  1.1595209874642518E+00  6.0582172131831216E-02  3.1233348550295560E-07
  1.1710729483476767E+00  6.0417036441519120E-02  3.0977362941458645E-07
  1.1827399979631685E+00  6.0262628027679795E-02  3.0728213478565275E-07
  1.1945232829053509E+00  6.0111937368752574E-02  3.0485940621527497E-07
  1.2064239611920282E+00  5.9939171016546743E-02  3.0250572820589104E-07
  1.2184432023779903E+00  5.9788969782893664E-02  3.0022131701418969E-07
  1.2305821876699481E+00  5.9629808251879676E-02  2.9800640401896331E-07
  1.2428421100426257E+00  5.9475920500196885E-02  2.9586136759264146E-07
  1.2552241743559966E+00  5.9324710922455275E-02  2.9378691483982529E-07
  1.2677295974736933E+00  5.9167999854283587E-02  2.9178429531246548E-07
  1.2803596083825961E+00  5.9017320532759140E-02  2.8985550654830352E-07
  1.2931154483136169E+00  5.8872421870174371E-02  2.8800345196039386E-07
  1.3059983708636773E+00  5.8711560815129633E-02  2.8623202314374019E-07
  1.3190096421189106E+00  5.8558159957613855E-02  2.8454609259191044E-07
  1.3321505407790886E+00  5.8396969242667872E-02  2.8295143235311298E-07
  1.3454223582832876E+00  5.8230542405810388E-02  2.8145458814588273E-07
  1.3588263989368012E+00  5.8081315039744959E-02  2.8006274119840585E-07
  1.3723639800393308E+00  5.7930094175491886E-02  2.7878357691090311E-07
  1.3860364320144396E+00  5.7766000341290334E-02  2.7762515349906628E-07
  1.3998450985403024E+00  5.7626227177927078E-02  2.7659576476908015E-07
  1.4137913366817567E+00  5.7479675411403079E-02  2.7570378617118566E-07
  1.4278765170236747E+00  5.7338986152389707E-02  2.7495749489504636E-07
  1.4421020238056528E+00  5.7201942127979202E-02  2.7436489120277538E-07
  1.4564692550580527E+00  5.7067235991264405E-02  2.7393355651564650E-07
  1.4709796227393972E+00  5.6933407820065333E-02  2.7367055352601814E-07
  1.4856345528751269E+00  5.6809916992054815E-02  2.7358240846642943E-07
  1.5004354856977475E+00  5.6687713755671700E-02  2.7367518051894981E-07
  1.5153838757883724E+00  5.6547167282574286E-02  2.7395459006634186E-07
  1.5304811922196715E+00  5.6428270010885462E-02  2.7442618076449532E-07
  1.5457289187002450E+00  5.6298856828514696E-02  2.7509548627540086E-07
  1.5611285537204378E+00  5.6172752016345313E-02  2.7596817872726155E-07
  1.5766816106996091E+00  5.6043242321621958E-02  2.7705016962138971E-07
  1.5923896181348596E+00  5.5911719352711879E-02  2.7834764838444559E-07
  1.6082541197512497E+00  5.5770540659034695E-02  2.7986706417903637E-07
  1.6242766746535131E+00  5.5649483183258686E-02  2.8161506322979749E-07
  1.6404588574792780E+00  5.5514277129360003E-02  2.8359838606992632E-07
  1.6568022585538118E+00  5.5398451601569421E-02  2.8582377429457940E-07
  1.6733084840463219E+00  5.5272509767961636E-02  2.8829791137391904E-07
  1.6899791561277993E+00  5.5141993122582250E-02  2.9102740007682745E-07
  1.7068159131304341E+00  5.5034490197547810E-02  2.9401879396559342E-07
  1.7238204097086360E+00  5.4918949376612951E-02  2.9727867459249169E-07
  1.7409943170016411E+00  5.4816897114973520E-02  3.0081375263944562E-07
  1.7583393227977413E+00  5.4709255389691618E-02  3.0463096652009189E-07
  1.7758571317001632E+00  5.4594088407065665E-02  3.0873753798342199E-07
  1.7935494652945867E+00  5.4488245101665812E-02  3.1314094166884912E-07
  1.8114180623183265E+00  5.4371898322534945E-02  3.1784876282054868E-07
  1.8294646788312310E+00  5.4253484942548579E-02  3.2286843897212916E-07
  1.8476910883882369E+00  5.4130562341096221E-02  3.2820687544300770E-07
  1.8660990822136774E+00  5.4017072697764582E-02  3.3386998394614512E-07
  1.8846904693773301E+00  5.3898455694766541E-02  3.3986221993413830E-07
  1.9034670769721804E+00  5.3774103541505795E-02  3.4618616472505561E-07
  1.9224307502940028E+00  5.3657048923925199E-02  3.5284221593167490E-07
  1.9415833530227011E+00  5.3545638938609495E-02  3.5982841119610498E-07
  1.9609267674054593E+00  5.3417455733419716E-02  3.6714036196753718E-07
  1.9804628944417337E+00  5.3308432211284819E-02  3.7477125721629158E-07
  2.0001936540700687E+00  5.3190734775871641E-02  3.8271191099251283E-07
  2.0201209853567770E+00  5.3070724933022673E-02  3.9095081217473032E-07
  2.0402468466865145E+00  5.2935379761879835E-02  3.9947418182457523E-07
  2.0605732159547392E+00  5.2820050224591381E-02  4.0826609274581076E-07
  2.0811020907620832E+00  5.2696931539790916E-02  4.1730863035352215E-07
  2.1018354886106820E+00  5.2580570010283864E-02  4.2658208001254474E-07
  2.1227754471024425E+00  5.2456605318283840E-02  4.3606519234188149E-07
  2.1439240241392832E+00  5.2338934757882746E-02  4.4573541220764107E-07
  2.1652832981253907E+00  5.2217858682026934E-02  4.5556901026679770E-07
  2.1868553681714711E+00  5.2094925196828887E-02  4.6554111026867512E-07
  2.2086423543010336E+00  5.1976557756577613E-02  4.7562560238969938E-07
  2.2306463976587647E+00  5.1846459008490844E-02  4.8579497210216175E-07
  2.2528696607209202E+00  5.1733565083422466E-02  4.9602008651490012E-07
  2.2753143275078607E+00  5.1609149611055685E-02  5.0627002298290732E-07
  2.2979826037987015E+00  5.1481630788848515E-02  5.1651201158713010E-07
  2.3208767173480616E+00  5.1356032509285852E-02  5.2671153223096427E-07
  2.3439989181050200E+00  5.1228162512760092E-02  5.3683261127974567E-07
  2.3673514784342276E+00  5.1094445025466631E-02  5.4683837132723949E-07
