 #p(MeV) \t \delta f_\\nu \t \delta f_\\nubar
  2.5520919741171579E-02  9.9232431296257376E-02  2.1277326808307038E-06
  2.5775177033403755E-02  9.8985291325727254E-02  2.1088357467025227E-06
  2.6031967415011573E-02  9.8752181324603297E-02  2.0900873656162189E-06
  2.6291316122407076E-02  9.8541332928499731E-02  2.0714870324616236E-06
  2.6553248643425075E-02  9.8365136293376274E-02  2.0530343307853011E-06
  2.6817790719828122E-02  9.8147199719792674E-02  2.0347289087924523E-06
  2.7084968349836206E-02  9.7920263705815067E-02  2.0165704563885877E-06
  2.7354807790681810E-02  9.7643079920327530E-02  1.9985586982275144E-06
  2.7627335561190413E-02  9.7403309433592614E-02  1.9806933965024287E-06
  2.7902578444386570E-02  9.7160096754867073E-02  1.9629743127654100E-06
  2.8180563490126147E-02  9.6963286824452141E-02  1.9454011231501031E-06
  2.8461318017754610E-02  9.6749294834455685E-02  1.9279733286748560E-06
  2.8744869618791878E-02  9.6525592665360357E-02  1.9106901999179723E-06
  2.9031246159643986E-02  9.6288916951004930E-02  1.8935507676875171E-06
  2.9320475784341580E-02  9.6046852835489360E-02  1.8765538473977740E-06
  2.9612586917305932E-02  9.5794390082161215E-02  1.8596980794003070E-06
  2.9907608266142267E-02  9.5580815265814342E-02  1.8429819717938252E-06
  3.0205568824461102E-02  9.5347338468311560E-02  1.8264039375872570E-06
  3.0506497874727673E-02  9.5119265347303708E-02  1.8099623310657178E-06
  3.0810424991139607E-02  9.4905505813473789E-02  1.7936554739647477E-06
  3.1117380042533463E-02  9.4704215382975118E-02  1.7774816463981424E-06
  3.1427393195320057E-02  9.4471980560720203E-02  1.7614390822297275E-06
  3.1740494916449126E-02  9.4286129097963522E-02  1.7455260103410940E-06
  3.2056715976403569E-02  9.4069335230260787E-02  1.7297407296940996E-06
  3.2376087452223347E-02  9.3837432804636051E-02  1.7140816808935563E-06
  3.2698640730559725E-02  9.3604254169614709E-02  1.6985474863653535E-06
  3.3024407510759760E-02  9.3397708991170086E-02  1.6831369555712392E-06
  3.3353419807981607E-02  9.3171237207671773E-02  1.6678490666429383E-06
  3.3685709956340938E-02  9.2942049563135898E-02  1.6526829372532594E-06
  3.4021310612088476E-02  9.2731764779447112E-02  1.6376377945267165E-06
  3.4360254756819461E-02  9.2517708033787033E-02  1.6227129449223991E-06
  3.4702575700714867E-02  9.2298050692044012E-02  1.6079077438008986E-06
  3.5048307085815036E-02  9.2077487802407876E-02  1.5932215929269673E-06
  3.5397482889325961E-02  9.1852837080230745E-02  1.5786539614972638E-06
  3.5750137426958276E-02  9.1627591272059120E-02  1.5642043916596912E-06
  3.6106305356299898E-02  9.1394163472790987E-02  1.5498724729140323E-06
  3.6466021680221831E-02  9.1214592625553814E-02  1.5356577980133511E-06
  3.6829321750318250E-02  9.0988900794810326E-02  1.5215599223516200E-06
  3.7196241270380723E-02  9.0803529988456880E-02  1.5075783403678556E-06
  3.7566816299906977E-02  9.0600133846197459E-02  1.4937124789568187E-06
  3.7941083257644732E-02  9.0372778981882465E-02  1.4799617024516043E-06
  3.8319078925170835E-02  9.0141392894282815E-02  1.4663253230281421E-06
  3.8700840450505945E-02  8.9898010227230069E-02  1.4528026125776975E-06
  3.9086405351765399E-02  8.9678982271132954E-02  1.4393928153623652E-06
  3.9475811520846220E-02  8.9460247575518251E-02  1.4260951566522503E-06
  3.9869097227151151E-02  8.9245092042596910E-02  1.4129088519849177E-06
  4.0266301121349504E-02  8.9033404111400469E-02  1.3998331320786187E-06
  4.0667462239175632E-02  8.8847420994659559E-02  1.3868672828556999E-06
  4.1072620005265313E-02  8.8648296698568510E-02  1.3740106849999655E-06
  4.1481814237030123E-02  8.8462152091244403E-02  1.3612628374933344E-06
  4.1895085148570592E-02  8.8249411739051736E-02  1.3486233594624584E-06
  4.2312473354628365E-02  8.8034204208230868E-02  1.3360919753521601E-06
  4.2734019874577561E-02  8.7815266311799409E-02  1.3236684919518870E-06
  4.3159766136456106E-02  8.7600174579405818E-02  1.3113527743285658E-06
  4.3589753981037024E-02  8.7386548919513765E-02  1.2991447246224108E-06
  4.4024025665940505E-02  8.7168342766528198E-02  1.2870442659492403E-06
  4.4462623869786749E-02  8.6967821555742092E-02  1.2750513278829876E-06
  4.4905591696390260E-02  8.6763698063694897E-02  1.2631658169194112E-06
  4.5352972678996011E-02  8.6552531827845058E-02  1.2513875624826451E-06
  4.5804810784557649E-02  8.6342121211702899E-02  1.2397162509963564E-06
  4.6261150418058401E-02  8.6141694893592469E-02  1.2281513722157130E-06
  4.6722036426875148E-02  8.5953186698016479E-02  1.2166921958867902E-06
  4.7187514105185673E-02  8.5769988797034097E-02  1.2053377816063912E-06
  4.7657629198420232E-02  8.5576818956358977E-02  1.1940870119952187E-06
  4.8132427907756972E-02  8.5352662105037960E-02  1.1829386354743374E-06
  4.8611956894662710E-02  8.5115572403445097E-02  1.1718913080472621E-06
  4.9096263285478434E-02  8.4865365957298267E-02  1.1609436287285661E-06
  4.9585394676050727E-02  8.4647090294403995E-02  1.1500941674017163E-06
  5.0079399136409485E-02  8.4435603646814350E-02  1.1393414887370203E-06
  5.0578325215491833E-02  8.4248677036663111E-02  1.1286841872099869E-06
  5.1082221945913442E-02  8.4096091760378827E-02  1.1181209378964943E-06
  5.1591138848787375E-02  8.3915942648013012E-02  1.1076505476308660E-06
  5.2105125938590596E-02  8.3723077218585407E-02  1.0972719882649969E-06
  5.2624233728079478E-02  8.3517012099905016E-02  1.0869844028895225E-06
  5.3148513233253758E-02  8.3316976192483586E-02  1.0767870880412037E-06
  5.3678015978370457E-02  8.3098957903154094E-02  1.0666794618737073E-06
  5.4212794001007258E-02  8.2899050598842935E-02  1.0566610292503200E-06
  5.4752899857176664E-02  8.2677042726835751E-02  1.0467313509881422E-06
  5.5298386626491135E-02  8.2500470107429252E-02  1.0368900200850561E-06
  5.5849307917379305E-02  8.2294227276797985E-02  1.0271366442724234E-06
  5.6405717872354599E-02  8.2099594585187285E-02  1.0174708310844436E-06
  5.6967671173336169E-02  8.1896782426565326E-02  1.0078921636637581E-06
  5.7535223047022674E-02  8.1702111236596778E-02  9.9840016557409766E-07
  5.8108429270319978E-02  8.1506939315196397E-02  9.8899427403411167E-07
  5.8687346175822448E-02  8.1304122316362110E-02  9.7967383736493269E-07
  5.9272030657349366E-02  8.1097759386092830E-02  9.7043813756676967E-07
  5.9862540175536057E-02  8.0899430116622262E-02  9.6128642663556832E-07
  6.0458932763480938E-02  8.0697764510932163E-02  9.5221796211349554E-07
  6.1061267032448956E-02  8.0506683124683176E-02  9.4323203264101322E-07
  6.1669602177631462E-02  8.0307586736595660E-02  9.3432797114317644E-07
  6.2283997983963772E-02  8.0106179963020510E-02  9.2550515776204827E-07
  6.2904514832000782E-02  7.9916765304965692E-02  9.1676301660238680E-07
  6.3531213703850620E-02  7.9736132653815045E-02  9.0810101108024049E-07
  6.4164156189168098E-02  7.9556650479407270E-02  8.9951864678575605E-07
  6.4803404491207181E-02  7.9365575419690013E-02  8.9101548441019198E-07
  6.5449021432934407E-02  7.9173252377911757E-02  8.8259114417378002E-07
  6.6101070463202613E-02  7.8965163808049882E-02  8.7424528586102432E-07
  6.6759615662986618E-02  7.8757410013870113E-02  8.6597756571333291E-07
  6.7424721751680919E-02  7.8546693316899452E-02  8.5778758404849955E-07
  6.8096454093459893E-02  7.8361979494802919E-02  8.4967484225188769E-07
  6.8774878703701650E-02  7.8166103541649504E-02  8.4163872016701359E-07
  6.9460062255475824E-02  7.7995851797039759E-02  8.3367847404597124E-07
  7.0152072086095835E-02  7.7805171958625255E-02  8.2579324951011211E-07
  7.0850976203736718E-02  7.7617217098205141E-02  8.1798210234609038E-07
  7.1556843294118502E-02  7.7457106826820568E-02  8.1024402085417026E-07
  7.2269742727256628E-02  7.7279954933434883E-02  8.0257794251922524E-07
  7.2989744564279174E-02  7.7082712269487444E-02  7.9498276084476983E-07
  7.3716919564312269E-02  7.6885581354556101E-02  7.8745733628335932E-07
  7.4451339191434179E-02  7.6686662960439037E-02  7.8000052742139249E-07
  7.5193075621698288E-02  7.6484119370120660E-02  7.7261124313494404E-07
  7.5942201750226437E-02  7.6271207246935285E-02  7.6528850369644744E-07
  7.6698791198372876E-02  7.6091606076298640E-02  7.5803149181048271E-07
  7.7462918320959251E-02  7.5909629048049071E-02  7.5083957886415346E-07
  7.8234658213582137E-02  7.5727628227640190E-02  7.4371232522022433E-07
  7.9014086719993049E-02  7.5541047557694349E-02  7.3664946088761538E-07
  7.9801280439552216E-02  7.5349036963235277E-02  7.2965085548591094E-07
  8.0596316734756285E-02  7.5154576441655518E-02  7.2271648530160351E-07
  8.1399273738841288E-02  7.4951013655478280E-02  7.1584640423949589E-07
  8.2210230363461506E-02  7.4772512449599121E-02  7.0904072542560762E-07
  8.3029266306444249E-02  7.4587176558732871E-02  7.0229960848994894E-07
  8.3856462059622494E-02  7.4420881976571096E-02  6.9562323887377142E-07
  8.4691898916745376E-02  7.4270162066444198E-02  6.8901179261773678E-07
  8.5535658981467269E-02  7.4102361235376252E-02  6.8246539007641524E-07
  8.6387825175416655E-02  7.3918782979856157E-02  6.7598404984752848E-07
  8.7248481246345502E-02  7.3722709675887260E-02  6.6956765754168255E-07
  8.8117711776359603E-02  7.3524070863480159E-02  6.6321595429354680E-07
  8.8995602190230880E-02  7.3330082873147975E-02  6.5692854284637480E-07
  8.9882238763792713E-02  7.3133033798264316E-02  6.5070490555965783E-07
  9.0777708632418977E-02  7.2952551519028144E-02  6.4454442796029008E-07
  9.1682099799587038E-02  7.2770392407662518E-02  6.3844642234053471E-07
  9.2595501145526615E-02  7.2590456428899663E-02  6.3241014427887239E-07
  9.3518002435954733E-02  7.2411781232530198E-02  6.2643479865645558E-07
  9.4449694330897269E-02  7.2226749282555944E-02  6.2051954234085779E-07
  9.5390668393598776E-02  7.2051198177391348E-02  6.1466349239766189E-07
  9.6341017099521226E-02  7.1877417890819029E-02  6.0886574431343516E-07
  9.7300833845431894E-02  7.1709717350627505E-02  6.0312539852047645E-07
  9.8270212958582015E-02  7.1527476564494250E-02  5.9744158681587046E-07
  9.9249249705977080E-02  7.1340291344786796E-02  5.9181349213997782E-07
  1.0023804030373941E-01  7.1171506337995183E-02  5.8624035937461077E-07
  1.0123668192656358E-01  7.0989699826800201E-02  5.8072149730780315E-07
  1.0224527271726661E-01  7.0788877235609213E-02  5.7525627415682700E-07
  1.0326391179643325E-01  7.0604862469223748E-02  5.6984410964163979E-07
  1.0429269927215684E-01  7.0434751710924282E-02  5.6448446775843101E-07
  1.0533173624987763E-01  7.0258625738787217E-02  5.5917685524843083E-07
  1.0638112484231937E-01  7.0084707399258581E-02  5.5392082412360227E-07
  1.0744096817952427E-01  6.9897317072257881E-02  5.4871597210016785E-07
  1.0851137041898820E-01  6.9735161773373452E-02  5.4356193567138718E-07
  1.0959243675589707E-01  6.9576501260393248E-02  5.3845837483490724E-07
  1.1068427343346508E-01  6.9395957755484225E-02  5.3340495368322675E-07
  1.1178698775337569E-01  6.9226033586625255E-02  5.2840132253784890E-07
  1.1290068808632688E-01  6.9045152649386099E-02  5.2344710499584755E-07
  1.1402548388268173E-01  6.8856417891637378E-02  5.1854189154771714E-07
  1.1516148568322435E-01  6.8663503755375901E-02  5.1368523909232763E-07
  1.1630880513002363E-01  6.8489842120690314E-02  5.0887667438204446E-07
  1.1746755497740514E-01  6.8309029714356137E-02  5.0411569932990806E-07
  1.1863784910303210E-01  6.8126717641288539E-02  4.9940179554493715E-07
  1.1981980251909663E-01  6.7966462359788371E-02  4.9473442802558130E-07
  1.2101353138362304E-01  6.7806728020044366E-02  4.9011305090055790E-07
  1.2221915301188342E-01  6.7641104204992128E-02  4.8553711828787348E-07
  1.2343678588792667E-01  6.7461819714702415E-02  4.8100610074406151E-07
  1.2466654967622284E-01  6.7278293156771668E-02  4.7651950388475776E-07
  1.2590856523342353E-01  6.7109354137241312E-02  4.7207688380710741E-07
  1.2716295462023877E-01  6.6941477859489243E-02  4.6767785627649286E-07
  1.2842984111343297E-01  6.6757559734136537E-02  4.6332209847944932E-07
  1.2970934921794025E-01  6.6590142381327003E-02  4.5900934437447060E-07
  1.3100160467910016E-01  6.6414341649533692E-02  4.5473937612278750E-07
  1.3230673449501518E-01  6.6241018008083630E-02  4.5051201388653372E-07
  1.3362486692903217E-01  6.6067551512841799E-02  4.4632710581712742E-07
  1.3495613152234737E-01  6.5890842819882903E-02  4.4218451979593927E-07
  1.3630065910673711E-01  6.5725432075948831E-02  4.3808413789044269E-07
  1.3765858181741555E-01  6.5556248870004302E-02  4.3402585327912062E-07
  1.3903003310602069E-01  6.5398517724187880E-02  4.3000956790851059E-07
  1.4041514775372907E-01  6.5235531415990991E-02  4.2603518963853318E-07
  1.4181406188450185E-01  6.5072584653835572E-02  4.2210262972824696E-07
  1.4322691297846257E-01  6.4911904671541273E-02  4.1821180057178965E-07
  1.4465383988540828E-01  6.4754436860253714E-02  4.1436261354870955E-07
  1.4609498283845457E-01  6.4579129608087649E-02  4.1055497731675706E-07
  1.4755048346781804E-01  6.4403832301507785E-02  4.0678879659004916E-07
  1.4902048481473479E-01  6.4228301270695926E-02  4.0306397124767690E-07
  1.5050513134551777E-01  6.4040030147597404E-02  3.9938039569609779E-07
  1.5200456896575459E-01  6.3835131382753457E-02  3.9573796150748114E-07
  1.5351894503464694E-01  6.3668582274208199E-02  3.9213657294049697E-07
  1.5504840837949183E-01  6.3498784041025713E-02  3.8857618448122687E-07
  1.5659310931030818E-01  6.3331884126039156E-02  3.8505686149274869E-07
  1.5815319963460878E-01  6.3195322929314859E-02  3.8157885480373080E-07
  1.5972883267231947E-01  6.3035071815863347E-02  3.7814267213138892E-07
  1.6132016327084611E-01  6.2884415024638207E-02  3.7474912849442319E-07
  1.6292734782029344E-01  6.2716748299351421E-02  3.7139936401431239E-07
  1.6455054426883400E-01  6.2557152993123796E-02  3.6809482757347640E-07
  1.6618991213823053E-01  6.2379921696072940E-02  3.6483723388482178E-07
  1.6784561253951352E-01  6.2212032164590148E-02  3.6162850609618109E-07
  1.6951780818881457E-01  6.2040546420127046E-02  3.5847071566947341E-07
  1.7120666342335725E-01  6.1871335118817435E-02  3.5536602739570719E-07
  1.7291234421760784E-01  6.1706514046276667E-02  3.5231664732947753E-07
  1.7463501819958660E-01  6.1547488070752707E-02  3.4932476975560013E-07
  1.7637485466734190E-01  6.1375366596648911E-02  3.4639252009035121E-07
  1.7813202460558733E-01  6.1221842016031654E-02  3.4352189269728496E-07
  1.7990670070250650E-01  6.1059566942553899E-02  3.4071468916123399E-07
  1.8169905736672382E-01  6.0897906911857397E-02  3.3797247298201355E-07
  1.8350927074444445E-01  6.0737648925988832E-02  3.3529654612243846E-07
  1.8533751873676543E-01  6.0582190567987020E-02  3.3268794985578372E-07
  1.8718398101715961E-01  6.0417054907298269E-02  3.3014748759529986E-07
  1.8904883904913261E-01  6.0262646523062256E-02  3.2767576236324734E-07
  1.9093227610405672E-01  6.0111955894055519E-02  3.2527321999189065E-07
  1.9283447727918232E-01  5.9939189573221939E-02  3.2294019180328228E-07
  1.9475562951582831E-01  5.9788988370561243E-02  3.2067694611940689E-07
  1.9669592161775365E-01  5.9629826871548872E-02  3.1848377157329249E-07
  1.9865554426971316E-01  5.9475939152335636E-02  3.1636110883950786E-07
  2.0063469005619680E-01  5.9324729607709584E-02  3.1430973197751577E-07
  2.0263355348035603E-01  5.9168018573716077E-02  3.1233096224472120E-07
  2.0465233098311900E-01  5.9017339287020340E-02  3.1042687363881890E-07
  2.0669122096249648E-01  5.8872440660002349E-02  3.0860044930935537E-07
  2.0875042379307893E-01  5.8711579642271951E-02  3.0685566047656023E-07
  2.1083014184572887E-01  5.8558178822895351E-02  3.0519745843834235E-07
  2.1293057950746958E-01  5.8396988147646087E-02  3.0363169351217671E-07
  2.1505194320157112E-01  5.8230561352014459E-02  3.0216498940537800E-07
  2.1719444140783625E-01  5.8081334027815623E-02  3.0080460534681406E-07
  2.1935828468309038E-01  5.7930113206974755E-02  2.9955830491276202E-07
  2.2154368568187341E-01  5.7766019418280287E-02  2.9843422448907654E-07
  2.2375085917733870E-01  5.7626246300994249E-02  2.9744073563465083E-07
  2.2598002208236020E-01  5.7479694582536447E-02  2.9658629119571652E-07
  2.2823139347085042E-01  5.7339005373112421E-02  2.9587924527723377E-07
  2.3050519459928936E-01  5.7201961399987906E-02  2.9532767423224825E-07
  2.3280164892846913E-01  5.7067255316391119E-02  2.9493923775379993E-07
  2.3512098214545538E-01  5.6933427200310083E-02  2.9472109615196193E-07
  2.3746342218576602E-01  5.6809936429131791E-02  2.9467990206080744E-07
  2.3982919925577237E-01  5.6687733251848414E-02  2.9482186767304760E-07
  2.4221854585532335E-01  5.6547186841169154E-02  2.9515289144027459E-07
  2.4463169680059421E-01  5.6428289633661081E-02  2.9567871942900051E-07
  2.4706888924716344E-01  5.6298876518888805E-02  2.9640511193966340E-07
  2.4953036271331949E-01  5.6172771777383695E-02  2.9733799237418888E-07
  2.5201635910360043E-01  5.6043262156972015E-02  2.9848354912060168E-07
  2.5452712273256645E-01  5.5911739266275316E-02  2.9984827514116367E-07
  2.5706290034881057E-01  5.5770560655401223E-02  3.0143895064030628E-07
  2.5962394115920873E-01  5.5649503266043850E-02  3.0326258172452389E-07
  2.6221049685341036E-01  5.5514297304125888E-02  3.0532629776575692E-07
  2.6482282162857296E-01  5.5398471872780741E-02  3.0763724806659483E-07
  2.6746117221434507E-01  5.5272530141849636E-02  3.1020253045917336E-07
  2.7012580789809593E-01  5.5142013605567058E-02  3.1302917086065054E-07
  2.7281699055039654E-01  5.5034510795224881E-02  3.1612415795235328E-07
  2.7553498465075676E-01  5.4918970096477067E-02  3.1949452249398454E-07
  2.7828005731361699E-01  5.4816917963997319E-02  3.2314744015402835E-07
  2.8105247831459790E-01  5.4709276376242684E-02  3.2709033180717055E-07
  2.8385252011701489E-01  5.4594109540133669E-02  3.3133092064818550E-07
  2.8668045789865393E-01  5.4488266389986995E-02  3.3587720317202057E-07
  2.8953656957881369E-01  5.4371919776370618E-02  3.4073730882260801E-07
  2.9242113584562207E-01  5.4253506572360742E-02  3.4591924379831778E-07
  2.9533444018361676E-01  5.4130584158104983E-02  3.5143050927794530E-07
  2.9827676890160731E-01  5.4017094713169157E-02  3.5727763758493235E-07
  3.0124841116081413E-01  5.3898477921155798E-02  3.6346571634763183E-07
  3.0424965900328216E-01  5.3774125992201646E-02  3.6999797068395893E-07
  3.0728080738058522E-01  5.3657071612306109E-02  3.7687545843018920E-07
  3.1034215418281152E-01  5.3545661878868514E-02  3.8409689879850609E-07
  3.1343400026783808E-01  5.3417478941678607E-02  3.9165861118500475E-07
  3.1655664949090007E-01  5.3308455702608296E-02  3.9955452339572315E-07
  3.1971040873445139E-01  5.3190758567621448E-02  4.0777622365966209E-07
  3.2289558793832318E-01  5.3070749043127689E-02  4.1631301508297755E-07
  3.2611250013018533E-01  5.2935404209933840E-02  4.2515197753427470E-07
  3.2936146145630896E-01  5.2820075029258111E-02  4.3427809174371394E-07
  3.3264279121263485E-01  5.2696956722320561E-02  4.4367440450520252E-07
  3.3595681187615467E-01  5.2580595592229967E-02  4.5332221036851524E-07
  3.3930384913660222E-01  5.2456631323134183E-02  4.6320126426157272E-07
  3.4268423192845937E-01  5.2338961209408438E-02  4.7328998125345805E-07
  3.4609829246328511E-01  5.2217885605623508E-02  4.8356557054601190E-07
  3.4954636626236285E-01  5.2094952618833512E-02  4.9400406272328447E-07
  3.5302879218967281E-01  5.1976585703933015E-02  5.0458022029554603E-07
  3.5654591248519807E-01  5.1846487510123579E-02  5.1526736259941615E-07
  3.6009807279855444E-01  5.1733594167345527E-02  5.2603714731635621E-07
  3.6368562222296130E-01  5.1609179308002295E-02  5.3685939301857911E-07
  3.6730891332955151E-01  5.1481661129850587E-02  5.4770201472287334E-07
  3.7096830220201638E-01  5.1356063525803103E-02  5.5853111345784399E-07
  3.7466414847160373E-01  5.1228194237235201E-02  5.6931126438162994E-07
  3.7839681535246034E-01  5.1094477491224699E-02  5.8000605899966427E-07
