 #p(MeV) \t \delta f_\\nu \t \delta f_\\nubar
  1.8795201752041728E-02  9.9232431790825026E-02  2.1283485396943794E-06
  1.8982452727041747E-02  9.8985291820611110E-02  2.1094516202311880E-06
  1.9171569227514750E-02  9.8752181819786275E-02  2.0907032540744803E-06
  1.9362569839133221E-02  9.8541333423954616E-02  2.0721029361170999E-06
  1.9555473332733102E-02  9.8365136789060573E-02  2.0536502499052290E-06
  1.9750298666158607E-02  9.8147200215758054E-02  2.0353448436414059E-06
  1.9947064986125248E-02  9.7920264202072893E-02  2.0171864072281063E-06
  2.0145791630101537E-02  9.7643080416939948E-02  1.9991746653161040E-06
  2.0346498128209437E-02  9.7403309930513757E-02  1.9813093800955543E-06
  2.0549204205143633E-02  9.7160097252101382E-02  1.9635903131155036E-06
  2.0753929782110089E-02  9.6963287321942565E-02  1.9460171405065524E-06
  2.0960694978783750E-02  9.6749295332223678E-02  1.9285893632840077E-06
  2.1169520115285875E-02  9.6525593163418077E-02  1.9113062520231312E-06
  2.1380425714181039E-02  9.6288917449368613E-02  1.8941668375289417E-06
  2.1593432502493952E-02  9.6046853334165835E-02  1.8771699352120036E-06
  2.1808561413746524E-02  9.5794390581163499E-02  1.8603141854186449E-06
  2.2025833590015035E-02  9.5580815765094695E-02  1.8435980962489941E-06
  2.2245270384007965E-02  9.5347338967894754E-02  1.8270200807243240E-06
  2.2466893361164465E-02  9.5119265847183276E-02  1.8105784931450013E-06
  2.2690724301773671E-02  9.4905506313632329E-02  1.7942716552618599E-06
  2.2916785203115270E-02  9.4704215883397475E-02  1.7780978472039857E-06
  2.3145098281621236E-02  9.4471981061444846E-02  1.7620553028504947E-06
  2.3375685975059207E-02  9.4286129598933482E-02  1.7461422510982712E-06
  2.3608570944737634E-02  9.4069335731514520E-02  1.7303569909244636E-06
  2.3843776077732751E-02  9.3837433306192541E-02  1.7146979629491765E-06
  2.4081324489137943E-02  9.3604254671475845E-02  1.6991637896136013E-06
  2.4321239524335323E-02  9.3397709493303310E-02  1.6837532803948114E-06
  2.4563544761290062E-02  9.3171237710101995E-02  1.6684654134349520E-06
  2.4808264012867582E-02  9.2942050065866810E-02  1.6532993063892044E-06
  2.5055421329173728E-02  9.2731765282455678E-02  1.6382541863285199E-06
  2.5305040999918385E-02  9.2517708537078150E-02  1.6233293596457454E-06
  2.5557147556802533E-02  9.2298051195624717E-02  1.6085241816347365E-06
  2.5811765775929155E-02  9.2077488306279417E-02  1.5938380539934955E-06
  2.6068920680238170E-02  9.1852837584398273E-02  1.5792704458519213E-06
  2.6328637541965509E-02  9.1627591776523340E-02  1.5648208992911429E-06
  2.6590941885126906E-02  9.1394163977561962E-02  1.5504890037441579E-06
  2.6855859488026164E-02  9.1214593130564944E-02  1.5362743518972311E-06
  2.7123416385788642E-02  9.0988901300118427E-02  1.5221764990775238E-06
  2.7393638872919897E-02  9.0803530494011922E-02  1.5081949396573145E-06
  2.7666553505889747E-02  9.0600134352021480E-02  1.4943291004731233E-06
  2.7942187105742169E-02  9.0372779488004748E-02  1.4805783458441083E-06
  2.8220566760731234E-02  9.0141393400708120E-02  1.4669419879920281E-06
  2.8501719828983120E-02  8.9898010733973036E-02  1.4534192988810651E-06
  2.8785673941184906E-02  8.9678982778163358E-02  1.4400095228483982E-06
  2.9072457003299884E-02  8.9460248082835730E-02  1.4267118852392295E-06
  2.9362097199310159E-02  8.9245092550197039E-02  1.4135256016662241E-06
  2.9654622993986395E-02  8.9033404619279041E-02  1.4004499029227436E-06
  2.9950063135685243E-02  8.8847421502784948E-02  1.3874840750062524E-06
  3.0248446659174689E-02  8.8648297206957161E-02  1.3746274986756790E-06
  3.0549802888487378E-02  8.8462152599880509E-02  1.3618796729880764E-06
  3.0854161439802533E-02  8.8249412247968451E-02  1.3492402171452560E-06
  3.1161552224356542E-02  8.8034204717431661E-02  1.3367088556655215E-06
  3.1472005451382457E-02  8.7815266821289331E-02  1.3242853953908788E-06
  3.1785551631078941E-02  8.7600175089180499E-02  1.3119697013984843E-06
  3.2102221577608579E-02  8.7386549429571886E-02  1.2997616758158622E-06
  3.2422046412126294E-02  8.7168343276875782E-02  1.2876612417436433E-06
  3.2745057565837746E-02  8.6967822066357683E-02  1.2756683287405628E-06
  3.3071286783088294E-02  8.6763698574583367E-02  1.2637828432871772E-06
  3.3400766124482742E-02  8.6552532339015484E-02  1.2520046147924150E-06
  3.3733527970036092E-02  8.6342121723154738E-02  1.2403333296647323E-06
  3.4069605022355752E-02  8.6141695405313676E-02  1.2287684776440825E-06
  3.4409030309855454E-02  8.5953187209992690E-02  1.2173093284613212E-06
  3.4751837190001092E-02  8.5769989309259081E-02  1.2059549416980156E-06
  3.5098059352589098E-02  8.5576819468845364E-02  1.1947041999592509E-06
  3.5447730823057168E-02  8.5352662617824357E-02  1.1835558516499854E-06
  3.5800885965828359E-02  8.5115572916547796E-02  1.1725085527658678E-06
  3.6157559487688146E-02  8.4865366470733769E-02  1.1615609023162123E-06
  3.6517786441195313E-02  8.4647090808133138E-02  1.1507114701765479E-06
  3.6881602228126864E-02  8.4435604160828986E-02  1.1399588210090521E-06
  3.7249042602957076E-02  8.4248677550933182E-02  1.1293015492811009E-06
  3.7620143676371350E-02  8.4096092274862061E-02  1.1187383300604332E-06
  3.7994941918815126E-02  8.3915943162743825E-02  1.1082679701732300E-06
  3.8373474164077888E-02  8.3723077733579773E-02  1.0978894414632381E-06
  3.8755777612913232E-02  8.3517012615179492E-02  1.0876018870129418E-06
  3.9141889836694664E-02  8.3316976708030926E-02  1.0774046033509454E-06
  3.9531848781108138E-02  8.3098958418996796E-02  1.0672970086227840E-06
  3.9925692769881060E-02  8.2899051114958822E-02  1.0572786076839222E-06
  4.0323460508548660E-02  8.2677043243252410E-02  1.0473489613449677E-06
  4.0725191088257943E-02  8.2500470624090660E-02  1.0375076626063950E-06
  4.1130923989609214E-02  8.2294227793741098E-02  1.0277543192120307E-06
  4.1540699086536230E-02  8.2099595102398004E-02  1.0180885387096806E-06
  4.1954556650224864E-02  8.1896782944054017E-02  1.0085099042555914E-06
  4.2372537353070699E-02  8.1702111754353629E-02  9.9901793942709947E-07
  4.2794682272676333E-02  8.1506939833222325E-02  9.8961208145645982E-07
  4.3221032895888127E-02  8.1304122834666870E-02  9.8029167867840695E-07
  4.3651631122873569E-02  8.1097759904681099E-02  9.7105601310675612E-07
  4.4086519271238959E-02  8.0899430635484451E-02  9.6190433675105491E-07
  4.4525740080188211E-02  8.0697765030072685E-02  9.5283590716709147E-07
  4.4969336714723245E-02  8.0506683644089291E-02  9.4385001301053901E-07
  4.5417352769885913E-02  8.0307587256277665E-02  9.3494598722725851E-07
  4.5869832275042419E-02  8.0106180482981640E-02  9.2612320997852468E-07
  4.6326819698210467E-02  7.9916765825191485E-02  9.1738110537922286E-07
  4.6788359950429216E-02  7.9736133174294996E-02  9.0871913685310399E-07
  4.7254498390173177E-02  7.9556651000140366E-02  9.0013680999799580E-07
  4.7725280827809698E-02  7.9365575940691033E-02  8.9163368551283670E-07
  4.8200753530101198E-02  7.9173252899182672E-02  8.8320938362553883E-07
  4.8680963224751940E-02  7.8965164329610593E-02  8.7486356412828351E-07
  4.9165957105000352E-02  7.8757410535720662E-02  8.6659588327015574E-07
  4.9655782834257041E-02  7.8546693839043905E-02  8.5840594137662575E-07
  5.0150488550788859E-02  7.8361980017209565E-02  8.5029323984071564E-07
  5.0650122872449813E-02  7.8166104064332553E-02  8.4225715851257975E-07
  5.1154734901459116E-02  7.7995852319967945E-02  8.3429695364152175E-07
  5.1664374229226623E-02  7.7805172481824322E-02  8.2641177083366429E-07
  5.2179090941226677E-02  7.7617217621672147E-02  8.1860066585814280E-07
  5.2698935621920122E-02  7.7457107350521401E-02  8.1086262699916948E-07
  5.3223959359725750E-02  7.7279955457391025E-02  8.0319659172564043E-07
  5.3754213752040932E-02  7.7082712793724195E-02  7.9560145352508412E-07
  5.4289750910312469E-02  7.6885581879073697E-02  7.8807607283406238E-07
  5.4830623465158011E-02  7.6686663485240003E-02  7.8061930822297088E-07
  5.5376884571538228E-02  7.6484119895209882E-02  7.7323006855187275E-07
  5.5928587913980782E-02  7.6271207772325947E-02  7.6590737407718155E-07
  5.6485787711856299E-02  7.6091606601949746E-02  7.5865040748745256E-07
  5.7048538724706707E-02  7.5909629573963841E-02  7.5145854015407919E-07
  5.7616896257626879E-02  7.5727628753818971E-02  7.4433133243117615E-07
  5.8190916166699844E-02  7.5541048084143123E-02  7.3726851433842010E-07
  5.8770654864486113E-02  7.5349037489961093E-02  7.3026995552324760E-07
  5.9356169325567615E-02  7.5154576968661777E-02  7.2333563230504092E-07
  5.9947517092146962E-02  7.4951014182776651E-02  7.1646559862169145E-07
  6.0544756279702669E-02  7.4772512977158964E-02  7.0965996763231222E-07
  6.1147945582700244E-02  7.4587177086563039E-02  7.0291889900001443E-07
  6.1757144280360644E-02  7.4420882504648483E-02  6.9624257819915425E-07
  6.2372412242486033E-02  7.4270162594749944E-02  6.8963118130350573E-07
  6.2993809935343467E-02  7.4102361763932062E-02  6.8308482870075702E-07
  6.3621398427607306E-02  7.3918783508682209E-02  6.7660353902175502E-07
  6.4255239396360908E-02  7.3722710204999639E-02  6.7018719791017988E-07
  6.4895395133157993E-02  7.3524071392882653E-02  6.6383554653223663E-07
  6.5541928550144346E-02  7.3330083402835464E-02  6.5754818765558333E-07
  6.6194903186240620E-02  7.3133034328241212E-02  6.5132460365340239E-07
  6.6854383213386867E-02  7.2952552049274560E-02  6.4516418005959370E-07
  6.7520433442848846E-02  7.2770392938181203E-02  6.3906622917256946E-07
  6.8193119331587615E-02  7.2590456959688507E-02  6.3303000657695651E-07
  6.8872506988692461E-02  7.2411781763588298E-02  6.2705471716005159E-07
  6.9558663181877659E-02  7.2226749813891850E-02  6.2113951779557216E-07
  7.0251655344044192E-02  7.2051198708993999E-02  6.1528352555524324E-07
  7.0951551579907055E-02  7.1877418422686898E-02  6.0948583593177353E-07
  7.1658420672688072E-02  7.1709717882753737E-02  6.0374554936360212E-07
  7.2372332090875680E-02  7.1527477096897593E-02  5.9806179765398096E-07
  7.3093355995052109E-02  7.1340291877474094E-02  5.9243376375019295E-07
  7.3821563244788627E-02  7.1171506870944298E-02  5.8686069254018242E-07
  7.4557025405609045E-02  7.0989700360028038E-02  5.8134189279889837E-07
  7.5299814756023126E-02  7.0788877769140071E-02  5.7587673270679145E-07
  7.6050004294629950E-02  7.0604863003037352E-02  5.7046463194031415E-07
  7.6807667747291655E-02  7.0434752245003979E-02  5.6510505445199374E-07
  7.7572879574379111E-02  7.0258626273141028E-02  5.5979750693937709E-07
  7.8345714978089689E-02  7.0084707933884272E-02  5.5454154137071992E-07
  7.9126249909837743E-02  6.9897317607172715E-02  5.4933675541851591E-07
  7.9914561077718813E-02  6.9735162308546483E-02  5.4418278553227109E-07
  8.0710725954048226E-02  6.9576501795820533E-02  5.3907929166585673E-07
  8.1514822782974963E-02  6.9395958291193355E-02  5.3402593786795546E-07
  8.2326930588170935E-02  6.9226034122603336E-02  5.2902237441559681E-07
  8.3147129180597246E-02  6.9045153185647107E-02  5.2406822485691096E-07
  8.3975499166347903E-02  6.8856418428191332E-02  5.1916307965950837E-07
  8.4812121954571162E-02  6.8663504292228339E-02  5.1430649575876443E-07
  8.5657079765470323E-02  6.8489842657817601E-02  5.0949799997219593E-07
  8.6510455638384026E-02  6.8309030251767586E-02  5.0473709427974131E-07
  8.7372333439947075E-02  6.8126718178986537E-02  5.0002326035733913E-07
  8.8242797872332301E-02  6.7966462897745994E-02  4.9535596327037914E-07
  8.9121934481575044E-02  6.7806728558261531E-02  4.9073465721454069E-07
  9.0009829665980270E-02  6.7641104743476857E-02  4.8615879637481508E-07
  9.0906570684613372E-02  6.7461820253472402E-02  4.8162785137474124E-07
  9.1812245665875661E-02  6.7278293695832991E-02  4.7714132789698485E-07
  9.2726943616165500E-02  6.7109354676576610E-02  4.7269878210586760E-07
  9.3650754428625277E-02  6.6941478399098073E-02  4.6829982983676108E-07
  9.4583768891975825E-02  6.6757560274039840E-02  4.6394414832946529E-07
  9.5526078699439007E-02  6.6590142921505169E-02  4.5963147153419433E-07
  9.6477776457748854E-02  6.6414342189998019E-02  4.5536158155896073E-07
  9.7438955696252341E-02  6.6241018548831937E-02  4.5113429850681096E-07
  9.8409710876101578E-02  6.6067552053874989E-02  4.4694947047003070E-07
  9.9390137399536921E-02  6.5890843361205806E-02  4.4280696527082410E-07
  1.0038033161926257E-01  6.5725432617548027E-02  4.3870666491746295E-07
  1.0138039084791593E-01  6.5556249411885092E-02  4.3464846252919328E-07
  1.0239041336763129E-01  6.5398518266336608E-02  4.3063225999327893E-07
  1.0341049843969821E-01  6.5235531958414708E-02  4.2665796511032923E-07
  1.0444074631431691E-01  6.5072585196534735E-02  4.2272548908003744E-07
  1.0548125824045040E-01  6.4911905214513455E-02  4.1883474423806142E-07
  1.0653213647577493E-01  6.4754437403495332E-02  4.1498564192551320E-07
  1.0759348429672909E-01  6.4579130151621367E-02  4.1117809082413591E-07
  1.0866540600866399E-01  6.4403832845334061E-02  4.0741199573297785E-07
  1.0974800695609384E-01  6.4228301814815689E-02  4.0368725663101332E-07
  1.1084139353304853E-01  6.4040030692027239E-02  4.0000376802485549E-07
  1.1194567319352987E-01  6.3835131927514902E-02  3.9636142158687567E-07
  1.1306095446207200E-01  6.3668582819254166E-02  3.9276012167599370E-07
  1.1418734694440627E-01  6.3498784586361226E-02  3.8919982287858911E-07
  1.1532496133823325E-01  6.3331884671661620E-02  3.8568059065808750E-07
  1.1647390944410163E-01  6.3195323475187387E-02  3.8220267594355668E-07
  1.1763430417639568E-01  6.3035072362016775E-02  3.7876658655266544E-07
  1.1880625957443151E-01  6.2884415571061836E-02  3.7537313760369563E-07
  1.1998989081366522E-01  6.2716748846067871E-02  3.7202346929613495E-07
  1.2118531421701147E-01  6.2557153540124352E-02  3.6871903052320549E-07
  1.2239264726627516E-01  6.2379922243380972E-02  3.6546153592900620E-07
  1.2361200861369741E-01  6.2212032712195192E-02  3.6225290855938227E-07
  1.2484351809361621E-01  6.2040546968034752E-02  3.5909521977250305E-07
  1.2608729673424307E-01  6.1871335667025983E-02  3.5599063425555701E-07
  1.2734346676955743E-01  6.1706514594781520E-02  3.5294135795924764E-07
  1.2861215165131937E-01  6.1547488619547452E-02  3.4994958506442518E-07
  1.2989347606120208E-01  6.1375367145750766E-02  3.4701744088332410E-07
  1.3118756592304454E-01  6.1221842565417954E-02  3.4414691967538036E-07
  1.3249454841522765E-01  6.1059567492236212E-02  3.4133982292122986E-07
  1.3381455198317252E-01  6.0897907461835446E-02  3.3859771401683107E-07
  1.3514770635196338E-01  6.0737649476261306E-02  3.3592189484761867E-07
  1.3649414253909670E-01  6.0582191118548318E-02  3.3331340670076039E-07
  1.3785399286735725E-01  6.0417055458161069E-02  3.3077305309367443E-07
  1.3922739097782202E-01  6.0262647074213756E-02  3.2830143719797158E-07
  1.4061447184299405E-01  6.0111956445491874E-02  3.2589900500030368E-07
  1.4201537178006721E-01  5.9939190124971772E-02  3.2356608797721712E-07
  1.4343022846432282E-01  5.9788988922597340E-02  3.2130295460529305E-07
  1.4485918094265954E-01  5.9629827423883668E-02  3.1910989367226283E-07
  1.4630236964725907E-01  5.9475939704963857E-02  3.1698734600750761E-07
  1.4775993640938689E-01  5.9324730160629363E-02  3.1493608582541526E-07
  1.4923202447333084E-01  5.9168019126935936E-02  3.1295743453843182E-07
  1.5071877851047868E-01  5.9017339840534470E-02  3.1105346629939957E-07
  1.5222034463353631E-01  5.8872441213805374E-02  3.0922716439117846E-07
  1.5373687041088652E-01  5.8711580196385810E-02  3.0748250004637369E-07
  1.5526850488109173E-01  5.8558179377312496E-02  3.0582442447682939E-07
  1.5681539856754123E-01  5.8396988702378062E-02  3.0425878788788333E-07
  1.5837770349324393E-01  5.8230561907069461E-02  3.0279221387214129E-07
  1.5995557319576789E-01  5.8081334583173556E-02  3.0143196154364352E-07
  1.6154916274233072E-01  5.7930113762639540E-02  3.0018579436373049E-07
  1.6315862874503817E-01  5.7766019974269472E-02  2.9906184860320876E-07
  1.6478412937627537E-01  5.7626246857278400E-02  2.9806849570580949E-07
  1.6642582438425174E-01  5.7479695139125243E-02  2.9721418840248676E-07
  1.6808387510870049E-01  5.7339005929999458E-02  2.9650728068280647E-07
  1.6975844449673416E-01  5.7201961957169534E-02  2.9595584878434540E-07
  1.7144969711885860E-01  5.7067255873865186E-02  2.9556755229249965E-07
  1.7315779918514670E-01  5.6933427758076298E-02  2.9534955150930844E-07
  1.7488291856157237E-01  5.6809936987178004E-02  2.9530849916732397E-07
  1.7662522478650791E-01  5.6687733810173981E-02  2.9545060755966722E-07
  1.7838488908738603E-01  5.6547187399798277E-02  2.9578177522785763E-07
  1.8016208439752707E-01  5.6428290192567593E-02  2.9630774832786530E-07
  1.8195698537313423E-01  5.6298877078087173E-02  2.9703428724966412E-07
  1.8376976841045814E-01  5.6172772336871069E-02  2.9796731548479413E-07
  1.8560061166313291E-01  5.6043262716754069E-02  2.9911302151097425E-07
  1.8744969505968365E-01  5.5911739826356048E-02  3.0047789838024140E-07
  1.8931720032120961E-01  5.5770561215794393E-02  3.0206872638688605E-07
  1.9120331097924329E-01  5.5649503826725649E-02  3.0389251172734492E-07
  1.9310821239378692E-01  5.5514297865115941E-02  3.0595638386292056E-07
  1.9503209177152850E-01  5.5398472434056274E-02  3.0826749215730159E-07
  1.9697513818424089E-01  5.5272530703425200E-02  3.1083293445281427E-07
  1.9893754258736243E-01  5.5142014167450272E-02  3.1365973668505289E-07
  2.0091949783876289E-01  5.5034511357388384E-02  3.1675488757216749E-07
  2.0292119871769779E-01  5.4918970658932927E-02  3.2012541791275386E-07
  2.0494284194395027E-01  5.4816918526730318E-02  3.2377850341422937E-07
  2.0698462619716312E-01  5.4709276939261822E-02  3.2772156499025387E-07
  2.0904675213636573E-01  5.4594110103450444E-02  3.3196232587461751E-07
  2.1112942241969332E-01  5.4488266953591560E-02  3.3650878260132549E-07
  2.1323284172430268E-01  5.4371920340278344E-02  3.4136906465341195E-07
  2.1535721676648947E-01  5.4253507136576326E-02  3.4655117826839274E-07
  2.1750275632200061E-01  5.4130584722636238E-02  3.5206262466418377E-07
  2.1966967124655340E-01  5.4017095278006272E-02  3.5790993619124536E-07
  2.2185817449655895E-01  5.3898478486307355E-02  3.6409820043644063E-07
  2.2406848115004779E-01  5.3774126557676931E-02  3.7063064239525498E-07
  2.2630080842780953E-01  5.3657072178097696E-02  3.7750831974134255E-07
  2.2855537571473952E-01  5.3545662444970929E-02  3.8472995151849577E-07
  2.3083240458139850E-01  5.3417479508114700E-02  3.9229185695417561E-07
  2.3313211880578921E-01  5.3308456269355119E-02  4.0018796368557138E-07
  2.3545474439534772E-01  5.3190759134691276E-02  4.0840985977261439E-07
  2.3780050960915383E-01  5.3070749610524562E-02  4.1694684815216808E-07
  2.4016964498036505E-01  5.2935404777678254E-02  4.2578600852331694E-07
  2.4256238333887184E-01  5.2820075597325364E-02  4.3491232144647083E-07
  2.4497895983417847E-01  5.2696957290721207E-02  4.4430883354558624E-07
  2.4741961195851417E-01  5.2580596160955888E-02  4.5395683920994865E-07
  2.4988457957017221E-01  5.2456631892195557E-02  4.6383609332811072E-07
  2.5237410491708151E-01  5.2338961778797856E-02  4.7392501113424923E-07
  2.5488843266061556E-01  5.2217886175346159E-02  4.8420080210573386E-07
  2.5742780989963587E-01  5.2094953188892908E-02  4.9463949712063127E-07
  2.5999248619477500E-01  5.1976586274324714E-02  5.0521585898382070E-07
  2.6258271359296531E-01  5.1846488080864221E-02  5.1590320732689817E-07
  2.6519874665220583E-01  5.1733594738415038E-02  5.2667320012667871E-07
  2.6784084246658074E-01  5.1609179879417606E-02  5.3749565625111314E-07
  2.7050926069152736E-01  5.1481661701618137E-02  5.4833849101312401E-07
  2.7320426356935062E-01  5.1356064097923169E-02  5.5916780573785758E-07
  2.7592611595499811E-01  5.1228194809713662E-02  5.6994817588040953E-07
  2.7867508534208818E-01  5.1094478064072343E-02  5.8064319324132835E-07
