 #p(MeV) \t \delta f_\\nu \t \delta f_\\nubar
  2.3647642446976348E-02  9.9232431448137384E-02  2.1279218105431308E-06
  2.3883236837665297E-02  9.8985291477704379E-02  2.1090248809236158E-06
  2.4121178384822309E-02  9.8752181476672307E-02  2.0902765044498029E-06
  2.4361490472465462E-02  9.8541333080652285E-02  2.0716761760121197E-06
  2.4604196717580764E-02  9.8365136445599341E-02  2.0532234791570287E-06
  2.4849320972443249E-02  9.8147199872102145E-02  2.0349180620896282E-06
  2.5096887326960991E-02  9.7920263858214437E-02  2.0167596147153241E-06
  2.5346920111042618E-02  9.7643080072835911E-02  1.9987478616878216E-06
  2.5599443896988400E-02  9.7403309586195932E-02  1.9808825652002095E-06
  2.5854483501905032E-02  9.7160096907566731E-02  1.9631634868044657E-06
  2.6112063990144683E-02  9.6963286977230639E-02  1.9455903026341285E-06
  2.6372210675768122E-02  9.6749294987319615E-02  1.9281625137074410E-06
  2.6634949125032538E-02  9.6525592818313494E-02  1.9108793906026002E-06
  2.6900305158904136E-02  9.6288917104052282E-02  1.8937399641275669E-06
  2.7168304855595626E-02  9.6046852988633052E-02  1.8767430496958437E-06
  2.7438974553129224E-02  9.5794390235405272E-02  1.8598872876556983E-06
  2.7712340851924928E-02  9.5580815419144108E-02  1.8431711861018797E-06
  2.7988430617414777E-02  9.5347338621734654E-02  1.8265931580393529E-06
  2.8267270982683109E-02  9.5119265500818159E-02  1.8101515577492699E-06
  2.8548889351133019E-02  9.4905505967074255E-02  1.7938447069632051E-06
  2.8833313399179574E-02  9.4704215536656922E-02  1.7776708857909891E-06
  2.9120571078969627E-02  9.4471980714495168E-02  1.7616283280924800E-06
  2.9410690621128936E-02  9.4286129251814108E-02  1.7457152627453009E-06
  2.9703700537536570E-02  9.4069335384198788E-02  1.7299299887073404E-06
  2.9999629624126865E-02  9.3837432958667255E-02  1.7142709465794401E-06
  3.0298506963719510E-02  9.3604254323739658E-02  1.6987367587835272E-06
  3.0600361928877575E-02  9.3397709145378732E-02  1.6833262347773985E-06
  3.0905224184794199E-02  9.3171237361971707E-02  1.6680383526874949E-06
  3.1213123692208012E-02  9.2942049717528188E-02  1.6528722301790286E-06
  3.1524090710347473E-02  9.2731764933924640E-02  1.6378270943687131E-06
  3.1838155799904726E-02  9.2517708188351255E-02  1.6229022517078345E-06
  3.2155349826038924E-02  9.2298050846697066E-02  1.6080970575491799E-06
  3.2475703961409572E-02  9.2077487957150123E-02  1.5934109136496948E-06
  3.2799249689240105E-02  9.1852837235063739E-02  1.5788432891982295E-06
  3.3126018806411819E-02  9.1627591426983110E-02  1.5643937263348767E-06
  3.3456043426588922E-02  9.1394163627809041E-02  1.5500618145516071E-06
  3.3789355983374389E-02  9.1214592780645504E-02  1.5358471465936705E-06
  3.4125989233497495E-02  9.0988900949993137E-02  1.5217492778472226E-06
  3.4465976260033053E-02  9.0803530143715505E-02  1.5077677027435494E-06
  3.4809350475652617E-02  9.0600134001538699E-02  1.4939018481759839E-06
  3.5156145625908186E-02  9.0372779137315382E-02  1.4801510784887526E-06
  3.5506395792548662E-02  9.0141393049808949E-02  1.4665147058709143E-06
  3.5860135396869150E-02  8.9898010382853971E-02  1.4529920022268648E-06
  3.6217399203093900E-02  8.9678982426845397E-02  1.4395822118318290E-06
  3.6578222321792649E-02  8.9460247731319165E-02  1.4262845599690457E-06
  3.6942640213331331E-02  8.9245092198484963E-02  1.4130982621892131E-06
  3.7310688691356834E-02  8.9033404267374397E-02  1.4000225492237165E-06
  3.7682403926316707E-02  8.8847421150709677E-02  1.3870567070080390E-06
  3.8057822449013907E-02  8.8648296854699854E-02  1.3742001162391213E-06
  3.8436981154196810E-02  8.8462152247452158E-02  1.3614522759120209E-06
  3.8819917304185124E-02  8.8249411895346061E-02  1.3488128051665484E-06
  3.9206668532531963E-02  8.8034204364612817E-02  1.3362814284592917E-06
  3.9597272847722208E-02  8.7815266468270495E-02  1.3238579525841233E-06
  3.9991768636908002E-02  8.7600174735964695E-02  1.3115422426093362E-06
  4.0390194669681093E-02  8.7386549076159975E-02  1.2993342006764792E-06
  4.0792590101883186E-02  8.7168342923263600E-02  1.2872337499027043E-06
  4.1198994479453861E-02  8.6967821712560081E-02  1.2752408198632776E-06
  4.1609447742317070E-02  8.6763698220596971E-02  1.2633553170552908E-06
  4.2023990228306336E-02  8.6552531984833994E-02  1.2515770709042098E-06
  4.2442662677128914E-02  8.6342121368778529E-02  1.2399057678350346E-06
  4.2865506234369556E-02  8.6141695050751102E-02  1.2283408976042640E-06
  4.3292562455534263E-02  8.5953186855253716E-02  1.2168817299593053E-06
  4.3723873310133998E-02  8.5769988954348036E-02  1.2055273244982806E-06
  4.4159481185809535E-02  8.5576819113753533E-02  1.1942765638428464E-06
  4.4599428892496920E-02  8.5352662262525025E-02  1.1831281964128080E-06
  4.5043759666634889E-02  8.5115572561029668E-02  1.1720808782098679E-06
  4.5492517175413839E-02  8.4865366114985477E-02  1.1611332082468258E-06
  4.5945745521067304E-02  8.4647090452181814E-02  1.1502837564053715E-06
  4.6403489245206264E-02  8.4435603804680306E-02  1.1395310873540368E-06
  4.6865793333196376E-02  8.4248677194608018E-02  1.1288737955665522E-06
  4.7332703218579041E-02  8.4096091918389723E-02  1.1183105561170167E-06
  4.7804264787536542E-02  8.3915942806100499E-02  1.1078401758379732E-06
  4.8280524383401351E-02  8.3723077376754412E-02  1.0974616265795359E-06
  4.8761528811210805E-02  8.3517012258160675E-02  1.0871740514305572E-06
  4.9247325342306747E-02  8.3316976350823690E-02  1.0769767469260138E-06
  4.9737961718981365E-02  8.3098958061585584E-02  1.0668691312178158E-06
  5.0233486159168943E-02  8.2899050757359038E-02  1.0568507091678184E-06
  5.0733947361184611E-02  8.2677042885444973E-02  1.0469210415919654E-06
  5.1239394508510373E-02  8.2500470266114415E-02  1.0370797214869785E-06
  5.1749877274628424E-02  8.2294227435570466E-02  1.0273263565830579E-06
  5.2265445827903059E-02  8.2099594744042784E-02  1.0176605544132399E-06
  5.2786150836511038E-02  8.1896782585507047E-02  1.0080818981190021E-06
  5.3312043473420910E-02  8.1702111395621724E-02  9.9858991126290970E-07
  5.3843175421422335E-02  8.1506939474304846E-02  9.8918403106244621E-07
  5.4379598878205003E-02  8.1304122475557086E-02  9.7986360583757576E-07
  5.4921366561488723E-02  8.1097759545375750E-02  9.7062791758733902E-07
  5.5468531714204107E-02  8.0899430275990183E-02  9.6147621830651152E-07
  5.6021148109725125E-02  8.0697764670386446E-02  9.5240776553610598E-07
  5.6579270057153914E-02  8.0506683284219879E-02  9.4342184791694926E-07
  5.7142952406657864E-02  8.0307586896217947E-02  9.3451779837891626E-07
  5.7712250554860151E-02  8.0106180122729354E-02  9.2569499706991933E-07
  5.8287220450284082E-02  7.9916765464756637E-02  9.1695286810057001E-07
  5.8867918598851203E-02  7.9736132813684857E-02  9.0829087489277059E-07
  5.9454402069434822E-02  7.9556650639355644E-02  8.9970852304252226E-07
  6.0046728499468217E-02  7.9365575579721487E-02  8.9120537324693821E-07
  6.0644956100609326E-02  7.9173252538026928E-02  8.8278104573210593E-07
  6.1249143664461297E-02  7.8965163968254870E-02  8.7443520028838522E-07
  6.1859350568350485E-02  7.8757410174164932E-02  8.6616749316304070E-07
  6.2475636781161872E-02  7.8546693477285365E-02  8.5797752467972359E-07
  6.3098062869232405E-02  7.8361979655270211E-02  8.4986479622963920E-07
  6.3726690002303341E-02  7.8166103702202533E-02  8.4182868766115232E-07
  6.4361579959531859E-02  7.7995851957668963E-02  8.3386845522412375E-07
  6.5002795135562313E-02  7.7805172119338531E-02  8.2598324453381192E-07
  6.5650398546658370E-02  7.7617217259001614E-02  8.1817211137067973E-07
  6.6304453836895705E-02  7.7457106987689761E-02  8.1043404402879779E-07
  6.6965025284417085E-02  7.7279955094383415E-02  8.0276797998684300E-07
  6.7632177807749064E-02  7.7082712430523087E-02  7.9517281274212969E-07
  6.8305976972182048E-02  7.6885581515678952E-02  7.8764740274101077E-07
  6.8986488996213957E-02  7.6686663121649845E-02  7.8019060856367934E-07
  6.9673780758057691E-02  7.6484119531420966E-02  7.7280133908000091E-07
  7.0367919802213783E-02  7.6271207408329128E-02  7.6547861455619661E-07
  7.1068974346108552E-02  7.6091606237773446E-02  7.5822161769063664E-07
  7.1777013286798003E-02  7.5909629209605811E-02  7.5102971986452863E-07
  7.2492106207738938E-02  7.5727628389278989E-02  7.4390248144049312E-07
  7.3214323385627375E-02  7.5541047719417054E-02  7.3683963243429514E-07
  7.3943735797305066E-02  7.5349037125044052E-02  7.2984104247296138E-07
  7.4680415126734720E-02  7.5154576603551418E-02  7.2290668785042807E-07
  7.5424433772044955E-02  7.4951013817464884E-02  7.1603662247894258E-07
  7.6175864852645395E-02  7.4772512611667022E-02  7.0923095949197017E-07
  7.6934782216412353E-02  7.4587176720884787E-02  7.0248985852696821E-07
  7.7701260446946460E-02  7.4420882138799910E-02  6.9581350503263580E-07
  7.8475374870902601E-02  7.4270162228744135E-02  6.8920207505708389E-07
  7.9257201565392454E-02  7.4102361397753960E-02  6.8265568896233311E-07
  8.0046817365461209E-02  7.3918783142317826E-02  6.7617436535355669E-07
  8.0844299871638728E-02  7.3722709838437803E-02  6.6975798984875739E-07
  8.1649727457565741E-02  7.3524071026120741E-02  6.6340630358860845E-07
  8.2463179277696072E-02  7.3330083035876986E-02  6.5711890931888219E-07
  8.3284735275075669E-02  7.3133033961083102E-02  6.5089528940087067E-07
  8.4114476189199261E-02  7.2952551681930572E-02  6.4473482936326699E-07
  8.4952483563944928E-02  7.2770392570649406E-02  6.3863684150013223E-07
  8.5798839755587983E-02  7.2590456591970345E-02  6.3260058139174467E-07
  8.6653627940894859E-02  7.2411781395684355E-02  6.2662525392105344E-07
  8.7516932125297084E-02  7.2226749445796185E-02  6.2071001595742893E-07
  8.8388837151147162E-02  7.2051198340714259E-02  6.1485398456824918E-07
  8.9269428706056739E-02  7.1877418054224110E-02  6.0905625524187719E-07
  9.0158793331317447E-02  7.1709717514112634E-02  6.0331592841240624E-07
  9.1057018430405853E-02  7.1527476728065170E-02  5.9763213587874353E-07
  9.1964192277573270E-02  7.1340291508445550E-02  5.9200406058382351E-07
  9.2880404026521077E-02  7.1171506501734982E-02  5.8643094741489181E-07
  9.3805743719162185E-02  7.0989699990626209E-02  5.8091210516579695E-07
  9.4740302294470155E-02  7.0788877399528910E-02  5.7544690205959578E-07
  9.5684171597416531E-02  7.0604862633230930E-02  5.7003475782203121E-07
  9.6637444387996679E-02  7.0434751875013843E-02  5.6467513645507976E-07
  9.7600214350346021E-02  7.0258625902961683E-02  5.5936754470575981E-07
  9.8572576101947182E-02  7.0084707563517340E-02  5.5411153459182386E-07
  9.9554625202928404E-02  6.9897317236606318E-02  5.4890670383528525E-07
  1.0054645816545485E-01  6.9735161937802159E-02  5.4375268893519583E-07
  1.0154817246321353E-01  6.9576501424901141E-02  5.3864914989499672E-07
  1.0255986654099278E-01  6.9395957920079895E-02  5.3359575081296550E-07
  1.0358163982435681E-01  6.9226033751304913E-02  5.2859214201578561E-07
  1.0461359272941693E-01  6.9045152814154187E-02  5.2363794709857988E-07
  1.0565582667270039E-01  6.8856418056497143E-02  5.1873275654547421E-07
  1.0670844408111671E-01  6.8663503920329202E-02  5.1387612724901749E-07
  1.0777154840202417E-01  6.8489842285730004E-02  5.0906758595525016E-07
  1.0884524411339623E-01  6.8309029879485200E-02  5.0430663457088264E-07
  1.0992963673408916E-01  6.8126717806507767E-02  4.9959275469859956E-07
  1.1102483283421190E-01  6.7966462525089560E-02  4.9492541133051138E-07
  1.1213094004559956E-01  6.7806728185427531E-02  4.9030405858899134E-07
  1.1324806707239118E-01  6.7641104370459712E-02  4.8572815058569767E-07
  1.1437632370171251E-01  6.7461819880259857E-02  4.8119715787080927E-07
  1.1551582081446556E-01  6.7278293322420801E-02  4.7671058605360347E-07
  1.1666667039622579E-01  6.7109354302976751E-02  4.7226799122497528E-07
  1.1782898554824731E-01  6.6941478025310766E-02  4.6786898914761519E-07
  1.1900288049857816E-01  6.6757559900050487E-02  4.6351325700978716E-07
  1.2018847061328643E-01  6.6590142547327258E-02  4.5920052877153933E-07
  1.2138587240779793E-01  6.6414341815623654E-02  4.5493058659565344E-07
  1.2259520355834640E-01  6.6241018174262575E-02  4.5070325064581335E-07
  1.2381658291353907E-01  6.6067551679109951E-02  4.4651836907498588E-07
  1.2505013050603631E-01  6.5890842986241732E-02  4.4237580976608964E-07
  1.2629596756434783E-01  6.5725432242394202E-02  4.3827545478814463E-07
  1.2755421652474669E-01  6.5556249036537867E-02  4.3421719732117920E-07
  1.2882500104330225E-01  6.5398517890805447E-02  4.3020093931327534E-07
  1.3010844600803195E-01  6.5235531582694781E-02  4.2622658862589666E-07
  1.3140467755117533E-01  6.5072584820625792E-02  4.2229405651962729E-07
  1.3271382306158980E-01  6.4911904838417259E-02  4.1840325539092518E-07
  1.3403601119726993E-01  6.4754437027214465E-02  4.1455409662844386E-07
  1.3537137189799106E-01  6.4579129775140229E-02  4.1074648890326150E-07
  1.3672003639807997E-01  6.4403832468652417E-02  4.0698033694293101E-07
  1.3808213723931184E-01  6.4228301437932983E-02  4.0325554063998548E-07
  1.3945780828393572E-01  6.4040030314932050E-02  3.9957199441433046E-07
  1.4084718472783020E-01  6.3835131550192353E-02  3.9592958985158968E-07
  1.4225040311379031E-01  6.3668582441736912E-02  3.9232823122389416E-07
  1.4366760134494574E-01  6.3498784208645812E-02  3.8876787303079316E-07
  1.4509891869831396E-01  6.3331884293749835E-02  3.8524858064883870E-07
  1.4654449583848778E-01  6.3195323097104766E-02  3.8177060492018063E-07
  1.4800447483145940E-01  6.3035071983741933E-02  3.7833445357552403E-07
  1.4947899915858159E-01  6.2884415192602142E-02  3.7494094164613364E-07
  1.5096821373066938E-01  6.2716748467407574E-02  3.7159120925119678E-07
  1.5247226490224078E-01  6.2557153161269419E-02  3.6828670525604973E-07
  1.5399130048590001E-01  6.2379921864315145E-02  3.6502914435553207E-07
  1.5552546976686407E-01  6.2212032332925632E-02  3.6182044967939584E-07
  1.5707492351763419E-01  6.2040546588557496E-02  3.5866269267146492E-07
  1.5863981401281257E-01  6.1871335287342233E-02  3.5555803810463807E-07
  1.6022029504406793E-01  6.1706514214894384E-02  3.5250869201538587E-07
  1.6181652193524942E-01  6.1547488239461358E-02  3.4951684867038441E-07
  1.6342865155765149E-01  6.1375366765453777E-02  3.4658463346775451E-07
  1.6505684234542969E-01  6.1221842184925768E-02  3.4371404075287967E-07
  1.6670125431117236E-01  6.1059567111540827E-02  3.4090687209240593E-07
  1.6836204906162519E-01  6.0897907080937078E-02  3.3816469096834387E-07
  1.7003938981357355E-01  6.0737649095160919E-02  3.3548879934932468E-07
  1.7173344140988270E-01  6.0582190737249887E-02  3.3288023856028971E-07
  1.7344437033569834E-01  6.0417055076655929E-02  3.3033981207314424E-07
  1.7517234473480772E-01  6.0262646692510913E-02  3.2786812296884634E-07
  1.7691753442616431E-01  6.0111956063594110E-02  3.2546561713840068E-07
  1.7868011092057726E-01  5.9939189742859424E-02  3.2313262596264257E-07
  1.8046024743756658E-01  5.9788988540289412E-02  3.2086941782238417E-07
  1.8225811892238622E-01  5.9629827041371722E-02  3.1867628140952661E-07
  1.8407390206321775E-01  5.9475939322251724E-02  3.1655365745755935E-07
  1.8590777530853428E-01  5.9324729777718521E-02  3.1450232008491512E-07
  1.8775991888463747E-01  5.9168018743820674E-02  3.1252359060802010E-07
  1.8963051481336976E-01  5.9017339457219035E-02  3.1061954308363375E-07
  1.9151974693000304E-01  5.8872440830293700E-02  3.0879316069924420E-07
  1.9342780090130476E-01  5.8711579812662854E-02  3.0704841462262814E-07
  1.9535486424378484E-01  5.8558178993383593E-02  3.0539025606910459E-07
  1.9730112634212435E-01  5.8396988318235289E-02  3.0382453527322823E-07
  1.9926677846778743E-01  5.8230561522707162E-02  3.0235787585931951E-07
  2.0125201379781790E-01  5.8081334198605630E-02  3.0099753697317518E-07
  2.0325702743382545E-01  5.7930113377863211E-02  2.9975128210792217E-07
  2.0528201642115865E-01  5.7766019589272487E-02  2.9862724756618455E-07
  2.0732717976826964E-01  5.7626246472080991E-02  2.9763380482354222E-07
  2.0939271846627236E-01  5.7479694753720514E-02  2.9677940664283009E-07
  2.1147883550869542E-01  5.7339005544391621E-02  2.9607240704552773E-07
  2.1358573591143096E-01  5.7201961571360836E-02  2.9552088230115861E-07
  2.1571362673288305E-01  5.7067255487856801E-02  2.9513249202699183E-07
  2.1786271709431720E-01  5.6933427371868135E-02  2.9491439654447029E-07
  2.2003321820041111E-01  5.6809936600778217E-02  2.9487324856135205E-07
  2.2222534336001154E-01  5.6687733423582784E-02  2.9501526034646852E-07
  2.2443930800709780E-01  5.6547187012998740E-02  2.9534633042760021E-07
  2.2667532972195348E-01  5.6428289805577694E-02  2.9587220494751574E-07
  2.2893362825254926E-01  5.6298876690896803E-02  2.9659864428297867E-07
  2.3121442553613911E-01  5.6172771949482149E-02  2.9753157191230994E-07
  2.3351794572107185E-01  5.6043262329162666E-02  2.9867717630000059E-07
  2.3584441518881899E-01  5.5911739438559427E-02  3.0004195048485136E-07
  2.3819406257622283E-01  5.5770560827783110E-02  3.0163267474790716E-07
  2.4056711879796658E-01  5.5649503438516316E-02  3.0345635527235080E-07
  2.4296381706926734E-01  5.5514297476695125E-02  3.0552012150625419E-07
  2.4538439292879502E-01  5.5398472045439955E-02  3.0783112280158144E-07
  2.4782908426182160E-01  5.5272530314603496E-02  3.1039645699875924E-07
  2.5029813132359890E-01  5.5142013778418104E-02  3.1322315001874414E-07
  2.5279177676296927E-01  5.5034510968164897E-02  3.1631819054666952E-07
  2.5531026564621356E-01  5.4918970269509940E-02  3.1968860934605288E-07
  2.5785384548113482E-01  5.4816918137118552E-02  3.2334158208920125E-07
  2.6042276624138150E-01  5.4709276549455212E-02  3.2728452965463171E-07
  2.6301728039101552E-01  5.4594109713441190E-02  3.3152517524095782E-07
  2.6563764290932285E-01  5.4488266563386636E-02  3.3607151534697498E-07
  2.6828411131587060E-01  5.4371919949867259E-02  3.4093167942047163E-07
  2.7095694569581846E-01  5.4253506745955971E-02  3.4611367366368250E-07
  2.7365640872547498E-01  5.4130584331801332E-02  3.5162499925920907E-07
  2.7638276569811426E-01  5.4017094886963733E-02  3.5747218852288274E-07
  2.7913628455004968E-01  5.3898478095051328E-02  3.6366032903301951E-07
  2.8191723588696205E-01  5.3774126166201051E-02  3.7019264584471993E-07
  2.8472589301049661E-01  5.3657071786407162E-02  3.7707019673127816E-07
  2.8756253194512138E-01  5.3545662053069563E-02  3.8429170084181547E-07
  2.9042743146525268E-01  5.3417479115986731E-02  3.9185347750928186E-07
  2.9332087312265392E-01  5.3308455877016443E-02  3.9974945447648567E-07
  2.9624314127410434E-01  5.3190758742133415E-02  4.0797121990911109E-07
  2.9919452310934408E-01  5.3070749217744712E-02  4.1650807684990987E-07
  3.0217530867929954E-01  5.2935404384662231E-02  4.2534710510399321E-07
  3.0518579092458786E-01  5.2820075204090246E-02  4.3447328533793719E-07
  3.0822626570430500E-01  5.2696956897259666E-02  4.4386966428200582E-07
  3.1129703182510360E-01  5.2580595767273509E-02  4.5351753643179432E-07
  3.1439839107055750E-01  5.2456631498285299E-02  4.6339665675148771E-07
  3.1753064823081922E-01  5.2338961384664907E-02  4.7348544040691597E-07
  3.2069411113257534E-01  5.2217885780986982E-02  4.8376109669892070E-07
  3.2388909066929777E-01  5.2094952794305149E-02  4.9419965631068331E-07
  3.2711590083179565E-01  5.1976585879511532E-02  5.0477588185173619E-07
  3.3037485873907707E-01  5.1846487685814187E-02  5.1546309275809589E-07
  3.3366628466951004E-01  5.1733594343142154E-02  5.2623294681075750E-07
  3.3699050209230008E-01  5.1609179483910236E-02  5.3705526268160840E-07
  3.4034783769928167E-01  5.1481661305871951E-02  5.4789795548725546E-07
  3.4373862143702011E-01  5.1356063701938091E-02  5.5872712635627167E-07
  3.4716318653924094E-01  5.1228194413485743E-02  5.6950735054691117E-07
  3.5062186955957764E-01  5.1094477667594271E-02  5.8020221966263617E-07
