 #p(MeV) \t \delta f_\\nu \t \delta f_\\nubar
  7.1550542350709376E-03  9.9232432160578574E-02  2.1288089453772244E-06
  7.2263379009432395E-03  9.8985292190602522E-02  2.1099120387313941E-06
  7.2983317446637065E-03  9.8752182190002757E-02  2.0911636855400300E-06
  7.3710428415218942E-03  9.8541333794375754E-02  2.0725633806363360E-06
  7.4444783372963350E-03  9.8365137159654406E-02  2.0541107075067035E-06
  7.5186454489568335E-03  9.8147200586563108E-02  2.0358053142914633E-06
  7.5935514653736932E-03  9.7920264573097354E-02  2.0176468908278532E-06
  7.6692037480340543E-03  9.7643080788230058E-02  1.9996351617083498E-06
  7.7456097317653641E-03  9.7403310302034890E-02  1.9817698890868846E-06
  7.8227769254660164E-03  9.7160097623856537E-02  1.9640508345074554E-06
  7.9007129128433294E-03  9.6963287693888817E-02  1.9464776741204460E-06
  7.9794253531588182E-03  9.6749295704376778E-02  1.9290499089684622E-06
  8.0589219819809307E-03  9.6525593535786866E-02  1.9117668096544128E-06
  8.1392106119452835E-03  9.6288917821964984E-02  1.8946274070109691E-06
  8.2202991335224261E-03  9.6046853706994673E-02  1.8776305164763478E-06
  8.3021955157933248E-03  9.5794390954234435E-02  1.8607747784245315E-06
  8.3849078072325070E-03  9.5580816138371841E-02  1.8440587009833593E-06
  8.4684441364990416E-03  9.5347339341396484E-02  1.8274806972053145E-06
  8.5528127132354081E-03  9.5119266220904664E-02  1.8110391214333698E-06
  8.6380218288742896E-03  9.4905506687560245E-02  1.7947322954685705E-06
  8.7240798574534442E-03  9.4704216257520596E-02  1.7785584994878972E-06
  8.8109952564386518E-03  9.4471981435791885E-02  1.7625159674078079E-06
  8.8987765675548978E-03  9.4286129973461863E-02  1.7466029281501622E-06
  8.9874324176258333E-03  9.4069336106252954E-02  1.7308176807106043E-06
  9.0769715194215523E-03  9.3837433681155227E-02  1.7151586657268720E-06
  9.1674026725148908E-03  9.3604255046664128E-02  1.6996245056577934E-06
  9.2587347641461901E-03  9.3397709868692919E-02  1.6842140099980721E-06
  9.3509767700967004E-03  9.3171238085711525E-02  1.6689261569074904E-06
  9.4441377555707137E-03  9.2942050441699106E-02  1.6537600640588503E-06
  9.5382268760864294E-03  9.2731765658493573E-02  1.6387149585385208E-06
  9.6332533783757470E-03  9.2517708913325378E-02  1.6237901467430032E-06
  9.7292266012929812E-03  9.2298051572086801E-02  1.6089849839615990E-06
  9.8261559767326596E-03  9.2077488682957426E-02  1.5942988718859111E-06
  9.9240510305564685E-03  9.1852837961296258E-02  1.5797312796372402E-06
  1.0022921383529386E-02  9.1627592153642134E-02  1.5652817492844502E-06
  1.0122776752265215E-02  9.1394164354909393E-02  1.5509498702464255E-06
  1.0223626950181461E-02  9.1214593508091538E-02  1.5367352351954849E-06
  1.0325481888463776E-02  9.0988901677866968E-02  1.5226373994448711E-06
  1.0428351577040003E-02  9.0803530871945481E-02  1.5086558573529329E-06
  1.0532246125563889E-02  9.0600134730156920E-02  1.4947900357422656E-06
  1.0637175744408641E-02  9.0372779866364328E-02  1.4810392989181127E-06
  1.0743150745670369E-02  9.0141393779295739E-02  1.4674029590888647E-06
  1.0850181544181501E-02  8.9898011112800005E-02  1.4538802882103024E-06
  1.0958278658534345E-02  8.9678983157207307E-02  1.4404705306076619E-06
  1.1067452712114774E-02  8.9460248462096631E-02  1.4271729115999852E-06
  1.1177714434146301E-02  8.9245092929671685E-02  1.4139866467661737E-06
  1.1289074660744471E-02  8.9033404998964297E-02  1.4009109668696218E-06
  1.1401544335981804E-02  8.8847421882657179E-02  1.3879451578848008E-06
  1.1515134512963364E-02  8.8648297587028579E-02  1.3750886005494395E-06
  1.1629856354912975E-02  8.8462152980139180E-02  1.3623407938993901E-06
  1.1745721136270322E-02  8.8249412628438953E-02  1.3497013571152527E-06
  1.1862740243798978E-02  8.8034205098116297E-02  1.3371700146941233E-06
  1.1980925177705416E-02  8.7815267202191530E-02  1.3247465734567863E-06
  1.2100287552769250E-02  8.7600175470296707E-02  1.3124308984591670E-06
  1.2220839099484645E-02  8.7386549810900674E-02  1.3002228918102656E-06
  1.2342591665213197E-02  8.7168343658421396E-02  1.2881224766111900E-06
  1.2465557215348207E-02  8.6967822448103735E-02  1.2761295824533065E-06
  1.2589747834490607E-02  8.6763698956533256E-02  1.2642441158714723E-06
  1.2715175727636613E-02  8.6552532721175759E-02  1.2524659063307239E-06
  1.2841853221377158E-02  8.6342122105524888E-02  1.2407946402866943E-06
  1.2969792765109307E-02  8.6141695787884595E-02  1.2292298075221450E-06
  1.3099006932259766E-02  8.5953187592753555E-02  1.2177706778105405E-06
  1.3229508421520507E-02  8.5769989692205215E-02  1.2064163107760610E-06
  1.3361310058096801E-02  8.5576819851986244E-02  1.1951655890664068E-06
  1.3494424794967571E-02  8.5352663001188933E-02  1.1840172611291592E-06
  1.3628865714158427E-02  8.5115573300148281E-02  1.1729699830025963E-06
  1.3764646028027275E-02  8.4865366854582722E-02  1.1620223537355981E-06
  1.3901779080562778E-02  8.4647091192201498E-02  1.1511729432208123E-06
  1.4040278348695799E-02  8.4435604545110704E-02  1.1404203161006031E-06
  1.4180157443623810E-02  8.4248677935405941E-02  1.1297630667952477E-06
  1.4321430112148571E-02  8.4096092659494456E-02  1.1191998703185688E-06
  1.4464110238027142E-02  8.3915943547561475E-02  1.1087295334503788E-06
  1.4608211843336275E-02  8.3723078118594738E-02  1.0983510279941796E-06
  1.4753749089850504E-02  8.3517013000404136E-02  1.0880634969927865E-06
  1.4900736280433861E-02  8.3316977093459810E-02  1.0778662369351197E-06
  1.5049187860445568E-02  8.3098958804646711E-02  1.0677586659270196E-06
  1.5199118419159620E-02  8.2899051500813045E-02  1.0577402887842459E-06
  1.5350542691198576E-02  8.2677043629331426E-02  1.0478106662776935E-06
  1.5503475557981670E-02  8.2500471010352461E-02  1.0379693913692484E-06
  1.5657932049187234E-02  8.2294228180213161E-02  1.0282160717802191E-06
  1.5813927344229796E-02  8.2099595489069574E-02  1.0185503150692887E-06
  1.5971476773751873E-02  8.1896783330932685E-02  1.0089717044330753E-06
  1.6130595821130557E-02  8.1702112141431957E-02  9.9947976350469218E-07
  1.6291300123999233E-02  8.1506940220500909E-02  9.9007392957416831E-07
  1.6453605475784311E-02  8.1304123222152996E-02  9.8075355103117458E-07
  1.6617527827257422E-02  8.1097760292378210E-02  9.7151790994376601E-07
  1.6783083288102952E-02  8.0899431023385440E-02  9.6236625837575598E-07
  1.6950288128501231E-02  8.0697765418180911E-02  9.5329785393720351E-07
  1.7119158780727582E-02  8.0506684032395331E-02  9.4431198533806670E-07
  1.7289711840767132E-02  8.0307587644789388E-02  9.3540798557849474E-07
  1.7461964069945844E-02  8.0106180871701627E-02  9.2658523487388035E-07
  1.7635932396577798E-02  7.9916766214109106E-02  9.1784315738553158E-07
  1.7811633917628761E-02  7.9736133563402617E-02  9.0918121655783468E-07
  1.7989085900396495E-02  7.9556651389437461E-02  9.0059891797919803E-07
  1.8168305784207656E-02  7.9365576330188842E-02  8.9209582231603761E-07
  1.8349311182131720E-02  7.9173253288882764E-02  8.8367154975131286E-07
  1.8532119882711893E-02  7.8965164719527914E-02  8.7532576002902651E-07
  1.8716749851713312E-02  7.8757410925855309E-02  8.6705810935055931E-07
  1.8903219233888689E-02  7.8546694229399000E-02  8.5886819799380627E-07
  1.9091546354761454E-02  7.8361980407761211E-02  8.5075552730420352E-07
  1.9281749722426751E-02  7.8166104455091409E-02  8.4271947708430395E-07
  1.9473848029370359E-02  7.7995852710910529E-02  8.3475930353579461E-07
  1.9667860154305678E-02  7.7805172872969591E-02  8.2687415221716889E-07
  1.9863805164029115E-02  7.7617218013017769E-02  8.1906307885222550E-07
  2.0061702315293833E-02  7.7457107742041731E-02  8.1132507169512454E-07
  2.0261571056702309E-02  7.7279955849101856E-02  8.0365906821066376E-07
  2.0463431030617592E-02  7.7082713185644219E-02  7.9606396190636858E-07
  2.0667302075093739E-02  7.6885582271203012E-02  7.8853861325375640E-07
  2.0873204225825420E-02  7.6686663877580469E-02  7.8108188086260051E-07
  2.1081157718116916E-02  7.6484120287765023E-02  7.7369267363034794E-07
  2.1291182988870797E-02  7.6271208165105617E-02  7.6637001184972433E-07
  2.1503300678596411E-02  7.6091606994923344E-02  7.5911307824557938E-07
  2.1717531633438297E-02  7.5909629967133879E-02  7.5192124422560864E-07
  2.1933896907224897E-02  7.5727629147185810E-02  7.4479407018023149E-07
  2.2152417763537675E-02  7.5541048477711370E-02  7.3773128616544452E-07
  2.2373115677800794E-02  7.5349037883736217E-02  7.3073276186490036E-07
  2.2596012339391638E-02  7.5154577362646358E-02  7.2379847363090797E-07
  2.2821129653772351E-02  7.4951014576979696E-02  7.1692847542167431E-07
  2.3048489744642700E-02  7.4772513371557575E-02  7.1012288040003394E-07
  2.3278114956114215E-02  7.4587177481164071E-02  7.0338184822094931E-07
  2.3510027854906121E-02  7.4420882899434701E-02  6.9670556434697529E-07
  2.3744251232563161E-02  7.4270162989707275E-02  6.9009420484307446E-07
  2.3980808107695397E-02  7.4102362159076757E-02  6.8354789009066532E-07
  2.4219721728240402E-02  7.3918783904029353E-02  6.7706663871449394E-07
  2.4461015573748034E-02  7.3722710600561236E-02  6.7065033635213800E-07
  2.4704713357687886E-02  7.3524071788661424E-02  6.6429872416369374E-07
  2.4950839029779730E-02  7.3330083798827550E-02  6.5801140491070702E-07
  2.5199416778347236E-02  7.3133034724449791E-02  6.5178786096019174E-07
  2.5450471032695144E-02  7.2952552445684701E-02  6.4562747783898184E-07
  2.5704026465510028E-02  7.2770393334794820E-02  6.3952956783863290E-07
  2.5960107995285038E-02  7.2590457356503935E-02  6.3349338654046948E-07
  2.6218740788768877E-02  7.2411782160604718E-02  6.2751813883193392E-07
  2.6479950263439005E-02  7.2226750211115534E-02  6.2160298158789626E-07
  2.6743762089999578E-02  7.2051199106416566E-02  6.1574703187971224E-07
  2.7010202194904371E-02  7.1877418820307043E-02  6.0994938519796279E-07
  2.7279296762904644E-02  7.1709718280566159E-02  6.0420914197868240E-07
  2.7551072239622464E-02  7.1527477494916281E-02  5.9852543402271605E-07
  2.7825555334149744E-02  7.1340292275703987E-02  5.9289744427493569E-07
  2.8102773021673137E-02  7.1171507269368647E-02  5.8732441762087010E-07
  2.8382752546124951E-02  7.0989700758659305E-02  5.8180566283301210E-07
  2.8665521422860659E-02  7.0788878167996283E-02  5.7634054808599440E-07
  2.8951107441363044E-02  7.0604863402103202E-02  5.7092849303778649E-07
  2.9239538667973141E-02  7.0434752644266990E-02  5.6556896161406775E-07
  2.9530843448648540E-02  7.0258626672607016E-02  5.6026146048511474E-07
  2.9825050411749189E-02  7.0084708333551488E-02  5.5500554159553401E-07
  3.0122188470850794E-02  6.9897318007053968E-02  5.4980080259789108E-07
  3.0422286827586357E-02  6.9735162708618528E-02  5.4464687992279544E-07
  3.0725374974516023E-02  6.9576502196080359E-02  5.3954343350509388E-07
  3.1031482698025525E-02  6.9395958691661555E-02  5.3449012737442763E-07
  3.1340640081253424E-02  6.9226034523270211E-02  5.2948661178877508E-07
  3.1652877507047567E-02  6.9045153586523009E-02  5.2453251027720212E-07
  3.1968225660951102E-02  6.8856418829283825E-02  5.1962741328826150E-07
  3.2286715534218011E-02  6.8663504693541433E-02  5.1477087774137634E-07
  3.2608378426858868E-02  6.8489843059333491E-02  5.0996243046349989E-07
  3.2933245950716936E-02  6.8309030653493155E-02  5.0520157347272383E-07
  3.3261350032574820E-02  6.8126718580923409E-02  5.0048778849643296E-07
  3.3592722917292053E-02  6.7966463299873950E-02  4.9582054065710058E-07
  3.3927397170974108E-02  6.7806728960580473E-02  4.9119928421033745E-07
  3.4265405684172835E-02  6.7641105145992572E-02  4.8662347340209972E-07
  3.4606781675118804E-02  6.7461820656198088E-02  4.8209257891688943E-07
  3.4951558692985850E-02  6.7278294098773131E-02  4.7760610649834507E-07
  3.5299770621188276E-02  6.7109355079718186E-02  4.7316361237178098E-07
  3.5651451680710641E-02  6.6941478802440696E-02  4.6876471243358528E-07
  3.6006636433470934E-02  6.6757560677599068E-02  4.6440908398458175E-07
  3.6365359785717255E-02  6.6590143325266429E-02  4.6009646103522749E-07
  3.6727656991458218E-02  6.6414342593969805E-02  4.5582662573712890E-07
  3.7093563655927489E-02  6.6241018953012765E-02  4.5159939820677862E-07
  3.7463115739083119E-02  6.6067552458265719E-02  4.4741462653177084E-07
  3.7836349559141468E-02  6.5890843765810225E-02  4.4327217851576375E-07
  3.8213301796146383E-02  6.5725433022356283E-02  4.3917193613540850E-07
  3.8594009495574011E-02  6.5556249816901432E-02  4.3511379247267348E-07
  3.8978510071973588E-02  6.5398518671551012E-02  4.3109764938002656E-07
  3.9366841312644216E-02  6.5235532363832657E-02  4.2712341462394821E-07
  3.9759041381348594E-02  6.5072585602156896E-02  4.2319099936998605E-07
  4.0155148822063585E-02  6.4911905620338203E-02  4.1930031591963366E-07
  4.0555202562768226E-02  6.4754437809520227E-02  4.1545127557982078E-07
  4.0959241919269217E-02  6.4579130557863559E-02  4.1164378699822856E-07
  4.1367306599065019E-02  6.4403833251794079E-02  4.0787775494987199E-07
  4.1779436705248016E-02  6.4228302221494254E-02  4.0415307942406686E-07
  4.2195672740445639E-02  6.4040031098936731E-02  4.0046965496511919E-07
  4.2616055610800917E-02  6.3835132334671515E-02  3.9682737329969422E-07
  4.3040626629992591E-02  6.3668583226622680E-02  3.9322613885214839E-07
  4.3469427523295183E-02  6.3498784993945442E-02  3.8966590627697251E-07
  4.3902500431679641E-02  6.3331885079459541E-02  3.8614674109897160E-07
  4.4339887915954841E-02  6.3195323883171492E-02  3.8266889430591779E-07
  4.4781632960950307E-02  6.3035072770209977E-02  3.7923287377417841E-07
  4.5227778979740431E-02  6.2884415979456154E-02  3.7583949468075734E-07
  4.5678369817911207E-02  6.2716749254680113E-02  3.7248989728389079E-07
  4.6133449757869094E-02  6.2557153948948022E-02  3.6918553053555741E-07
  4.6593063523192833E-02  6.2379922652433722E-02  3.6592810913322237E-07
  4.7057256283028870E-02  6.2212033121469251E-02  3.6271955613628558E-07
  4.7526073656530374E-02  6.2040547377534581E-02  3.5956194286690855E-07
  4.7999561717340426E-02  6.1871336076750452E-02  3.5645743394508623E-07
  4.8477766998120071E-02  6.1706515004727444E-02  3.5340823523916175E-07
  4.8960736495121351E-02  6.1547489029710217E-02  3.5041654084561653E-07
  4.9448517672805982E-02  6.1375367556143430E-02  3.4748447599937094E-07
  4.9941158468509723E-02  6.1221842976023809E-02  3.4461403488663760E-07
  5.0438707297153856E-02  6.1059567903064105E-02  3.4180701891496382E-07
  5.0941213056003007E-02  6.0897907872885390E-02  3.3906499140717013E-07
  5.1448725129470595E-02  6.0737649887532504E-02  3.3638925417550385E-07
  5.1961293393972166E-02  6.0582191530036737E-02  3.3378084843391282E-07
  5.2478968222827160E-02  6.0417055869876182E-02  3.3124057762774763E-07
  5.3001800491209276E-02  6.0262647486145848E-02  3.2876904487783014E-07
  5.3529841581146327E-02  6.0111956857637823E-02  3.2636669616040481E-07
  5.4063143386569992E-02  5.9939190537352638E-02  3.2403386297166538E-07
  5.4601758318415662E-02  5.9788989335192333E-02  3.2177081382698848E-07
  5.5145739309773081E-02  5.9629827836701642E-02  3.1957783756268467E-07
  5.5695139821088674E-02  5.9475940118000351E-02  3.1745537505710833E-07
  5.6250013845419292E-02  5.9324730573882371E-02  3.1540420057067973E-07
  5.6810415913738414E-02  5.9168019540411169E-02  3.1342563556149498E-07
  5.7376401100295293E-02  5.9017340254226898E-02  3.1152175422807102E-07
  5.7948025028027560E-02  5.8872441627710194E-02  3.0969553989896506E-07
  5.8525343874027448E-02  5.8711580610518690E-02  3.0795096385250272E-07
  5.9108414375062750E-02  5.8558179791667192E-02  3.0629297734623221E-07
  5.9697293833152781E-02  5.8396989116962617E-02  3.0472743063069470E-07
  6.0292040121199771E-02  5.8230562321889626E-02  3.0326094734217762E-07
  6.0892711688676188E-02  5.8081334998214003E-02  3.0190078663439476E-07
  6.1499367567369297E-02  5.7930114177903030E-02  3.0065471200010760E-07
  6.2112067377182383E-02  5.7766020389768989E-02  2.9953085973194777E-07
  6.2730871331993926E-02  5.7626247272991940E-02  2.9853760129033495E-07
  6.3355840245575293E-02  5.7479695555060148E-02  2.9768338942403699E-07
  6.3987035537567336E-02  5.7339006346151120E-02  2.9697657814113589E-07
  6.4624519239516370E-02  5.7201962373535496E-02  2.9642524369773928E-07
  6.5268354000970405E-02  5.7067256290444193E-02  2.9603704569778545E-07
  6.5918603095636311E-02  5.6933428174868496E-02  2.9581914446186687E-07
  6.6575330427597862E-02  5.6809937404174678E-02  2.9577819274110441E-07
  6.7238600537596088E-02  5.6687734227374893E-02  2.9592040284427770E-07
  6.7908478609372214E-02  5.6547187817221754E-02  2.9625167331184990E-07
  6.8585030476073602E-02  5.6428290610194200E-02  2.9677775028696754E-07
  6.9268322626723472E-02  5.6298877495927858E-02  2.9750439414895113E-07
  6.9958422212755333E-02  5.6172772754923689E-02  2.9843752838519892E-07
  7.0655397054612420E-02  5.6043263135022808E-02  2.9958334147284654E-07
  7.1359315648412705E-02  5.5911740244843820E-02  3.0094832646211044E-07
  7.2070247172680443E-02  5.5770561634511287E-02  3.0253926364449316E-07
  7.2788261495144960E-02  5.5649504245653632E-02  3.0436315921360951E-07
  7.3513429179606904E-02  5.5514298284269403E-02  3.0642714262793049E-07
  7.4245821492872718E-02  5.5398472853417868E-02  3.0873836324830627E-07
  7.4985510411758993E-02  5.5272531123005481E-02  3.1130391891422390E-07
  7.5732568630165795E-02  5.5142014587254519E-02  3.1413083555920044E-07
  7.6487069566220575E-02  5.5034511777395836E-02  3.1722610190987319E-07
  7.7249087369493818E-02  5.4918971079152175E-02  3.2059674878694656E-07
  7.8018696928286072E-02  5.4816918947149629E-02  3.2424995192575872E-07
  7.8795973876987349E-02  5.4709277359887551E-02  3.2819313227513420E-07
  7.9580994603510730E-02  5.4594110524290779E-02  3.3243401311625195E-07
  8.0373836256799225E-02  5.4488267374638841E-02  3.3698059104235860E-07
  8.1174576754407354E-02  5.4371920761543728E-02  3.4184099559972877E-07
  8.1983294790159547E-02  5.4253507558063074E-02  3.4702323308934590E-07
  8.2800069841882776E-02  5.4130585144349930E-02  3.5253480479266344E-07
  8.3624982179217794E-02  5.4017095699939371E-02  3.5838224312375024E-07
  8.4458112871508312E-02  5.3898478908466177E-02  3.6457063573315060E-07
  8.5299543795767110E-02  5.3774126980068386E-02  3.7110320767998764E-07
  8.6149357644723437E-02  5.3657072600716442E-02  3.7798101669892308E-07
  8.7007637934949561E-02  5.3545662867813218E-02  3.8520278189147815E-07
  8.7874469015068041E-02  5.3417479931198102E-02  3.9276482253615968E-07
  8.8749936074041871E-02  5.3308456692663118E-02  4.0066106628847284E-07
  8.9634125149546176E-02  5.3190759558233762E-02  4.0888310116735224E-07
  9.0527123136423443E-02  5.3070750034305260E-02  4.1742023001101839E-07
  9.1429017795223791E-02  5.2935405201713220E-02  4.2625953239699010E-07
  9.2339897760829417E-02  5.2820076021596891E-02  4.3538598876230857E-07
  9.3259852551165118E-02  5.2696957715237976E-02  4.4478264560738467E-07
  9.4188972575996233E-02  5.2580596585712548E-02  4.5443079719777728E-07
  9.5127349145813611E-02  5.2456632317200332E-02  4.6431019829813155E-07
  9.6075074480806891E-02  5.2338962204045665E-02  4.7439926401860539E-07
  9.7032241719928192E-02  5.2217886600841062E-02  4.8467520371033764E-07
  9.7998944930045184E-02  5.2094953614637313E-02  4.9511404810414382E-07
  9.8975279115185166E-02  5.1976586700314770E-02  5.0569055984079533E-07
  9.9961340225872899E-02  5.1846488507111529E-02  5.1637805846656954E-07
  1.0095722516855893E-01  5.1733595164903765E-02  5.2714820207236493E-07
  1.0196303181514377E-01  5.1609180306159554E-02  5.3797080987544208E-07
  1.0297885901259698E-01  5.1481662128617559E-02  5.4881379766588374E-07
  1.0400480659267033E-01  5.1356064525179969E-02  5.5964326726344730E-07
  1.0504097538170977E-01  5.1228195237232148E-02  5.7042379461859451E-07
  1.0608746721056404E-01  5.1094478491860745E-02  5.8111897202796758E-07
