 #p(MeV) \t \delta f_\\nu \t \delta f_\\nubar
  3.8599523263321278E-01  9.9232205528253556E-02  1.9101332399291190E-06
  3.8984078771740210E-01  9.8985065065968519E-02  1.8914421423005866E-06
  3.9372465491701469E-01  9.8751954576196496E-02  1.8729013155402401E-06
  3.9764721592420094E-01  9.8541105699226653E-02  1.8545103497979054E-06
  4.0160885623379527E-01  9.8364908597981943E-02  1.8362688319276296E-06
  4.0560996518120263E-01  9.8146971529729010E-02  1.8181763435954865E-06
  4.0965093598065966E-01  9.7920035010736928E-02  1.8002324589214911E-06
  4.1373216576387883E-01  9.7642850686204222E-02  1.7824367528910905E-06
  4.1785405561907768E-01  9.7403079675768042E-02  1.7647888154269542E-06
  4.2201701063039493E-01  9.7159866465218639E-02  1.7472882211624759E-06
  4.2622143991770234E-01  9.6963056022959543E-02  1.7299344496338562E-06
  4.3046775667680987E-01  9.6749063504582011E-02  1.7127267994964086E-06
  4.3475637822007390E-01  9.6525360794459281E-02  1.6956643365348206E-06
  4.3908772601740959E-01  9.6288684524179824E-02  1.6787458859057288E-06
  4.4346222573770999E-01  9.6046619841815090E-02  1.6619700596144149E-06
  4.4788030729068112E-01  9.5794156507536671E-02  1.6453353514546485E-06
  4.5234240486908983E-01  9.5580581124406996E-02  1.6288402523585006E-06
  4.5684895699143596E-01  9.5347103740461070E-02  1.6124832675275531E-06
  4.6140040654504849E-01  9.5119030028016180E-02  1.5962629214810833E-06
  4.6599720082960977E-01  9.4905269903087855E-02  1.5801777602808026E-06
  4.7063979160111591E-01  9.4703978880977271E-02  1.5642263249641871E-06
  4.7532863511627221E-01  9.4471743441570513E-02  1.5484071341705352E-06
  4.8006419217733309E-01  9.4285891381339179E-02  1.5327187171340601E-06
  4.8484692817738900E-01  9.4069096891027715E-02  1.5171596830640406E-06
  4.8967731314610119E-01  9.3837193827048027E-02  1.5017287877839915E-06
  4.9455582179589724E-01  9.3604014546239386E-02  1.4864249708873401E-06
  4.9948293356862183E-01  9.3397468731230851E-02  1.4712473594835759E-06
  5.0445913268265530E-01  9.3170996293238342E-02  1.4561952243321159E-06
  5.0948490818050163E-01  9.2941807986442249E-02  1.4412678757518566E-06
  5.1456075397684842E-01  9.2731522545468889E-02  1.4264646290470316E-06
  5.1968716890710820E-01  9.2517465133958879E-02  1.4117848012963895E-06
  5.2486465677644079E-01  9.2297807116486913E-02  1.3972277033207728E-06
  5.3009372640926655E-01  9.2077243543779788E-02  1.3827926541270229E-06
  5.3537489169927188E-01  9.1852592129000571E-02  1.3684790146254330E-06
  5.4070867165991110E-01  9.1627345620478931E-02  1.3542862019411444E-06
  5.4609559047541600E-01  9.1393917108236286E-02  1.3402136695845972E-06
  5.5153617755230788E-01  9.1214345572385405E-02  1.3262608680022273E-06
  5.5703096757142700E-01  9.0988653016963308E-02  1.3124272074082363E-06
  5.6258050054047970E-01  9.0803281501610045E-02  1.2987120356320559E-06
  5.6818532184710713E-01  9.0599884630495175E-02  1.2851146366128854E-06
  5.7384598231248407E-01  9.0372529013490924E-02  1.2716342667986547E-06
  5.7956303824545297E-01  9.0141142161172666E-02  1.2582701812920140E-06
  5.8533705149719362E-01  8.9897758712303225E-02  1.2450216353077925E-06
  5.9116858951644258E-01  8.9678729979341079E-02  1.2318878858193932E-06
  5.9705822540525721E-01  8.9459994497014195E-02  1.2188681912659789E-06
  6.0300653797534021E-01  8.9244838169429158E-02  1.2059618139234167E-06
  6.0901411180492160E-01  8.9033149435448669E-02  1.1931680396975990E-06
  6.1508153729620951E-01  8.8847165521446461E-02  1.1804862147869312E-06
  6.2120941073341340E-01  8.8648040409527756E-02  1.1679157827904744E-06
  6.2739833434134351E-01  8.8461894983863198E-02  1.1554563063388433E-06
  6.3364891634459541E-01  8.8249153786066445E-02  1.1431074680912747E-06
  6.3996177102732543E-01  8.8033945397193461E-02  1.1308690539199668E-06
  6.4633751879361800E-01  8.7815006629264961E-02  1.1187408988608321E-06
  6.5277678622845958E-01  8.7599914016370850E-02  1.1067228287764492E-06
  6.5928020615931371E-01  8.7386287465095330E-02  1.0948146527848343E-06
  6.6584841771831627E-01  8.7168080405589182E-02  1.0830161644635994E-06
  6.7248206640508446E-01  8.6967558286778934E-02  1.0713271402203541E-06
  6.7918180415015528E-01  8.6763433871250559E-02  1.0597473188797093E-06
  6.8594828937905539E-01  8.6552266693720542E-02  1.0482763541374383E-06
  6.9278218707700756E-01  8.6341855122125000E-02  1.0369137528275998E-06
  6.9968416885428308E-01  8.6141427840167636E-02  1.0256588238090835E-06
  7.0665491301220684E-01  8.5952918673105158E-02  1.0145106562635614E-06
  7.1369510460981544E-01  8.5769719788216639E-02  1.0034681303553638E-06
  7.2080543553118548E-01  8.5576548940751368E-02  9.9252995094721856E-07
  7.2798660455342590E-01  8.5352391045452572E-02  9.8169471608710183E-07
  7.3523931741535486E-01  8.5115300273899172E-02  9.7096102189192173E-07
  7.4256428688685416E-01  8.4865092731311681E-02  9.6032749150411169E-07
  7.4996223283891850E-01  8.4646815974820738E-02  9.4979277561286777E-07
  7.5743388231440367E-01  8.4435328219916589E-02  9.3935555618865561E-07
  7.6497996959947445E-01  8.4248400500386261E-02  9.2901456751841278E-07
  7.7260123629576927E-01  8.4095814119186652E-02  9.1876863744087635E-07
  7.8029843139328336E-01  8.3915663865141515E-02  9.0861673222161166E-07
  7.8807231134397349E-01  8.3722797266857052E-02  8.9855798593549020E-07
  7.9592364013610251E-01  8.3516730951556664E-02  8.8859170447871542E-07
  8.0385318936931838E-01  8.3316693832467620E-02  8.7871734657138299E-07
  8.1186173833048769E-01  8.3098674300009986E-02  8.6893449163754097E-07
  8.1995007407027731E-01  8.2898765745322622E-02  8.5924279923766971E-07
  8.2811899148050461E-01  8.2676756588089373E-02  8.4964194700913610E-07
  8.3636929337225818E-01  8.2500182694370386E-02  8.4013160074173444E-07
  8.4470179055479155E-01  8.2293938548569895E-02  8.3071141268344213E-07
  8.5311730191520863E-01  8.2099304528763531E-02  8.2138101810319990E-07
  8.6161665449894220E-01  8.1896491014800940E-02  8.1214001868284422E-07
  8.7020068359102931E-01  8.1701818453151429E-02  8.0298795211363635E-07
  8.7887023279820420E-01  8.1506645137222708E-02  7.9392426799743368E-07
  8.8762615413180057E-01  8.1303826715438843E-02  7.8494832697065843E-07
  8.9646930809148828E-01  8.1097462336081033E-02  7.7605942408597464E-07
  9.0540056374983680E-01  8.0899131598988150E-02  7.6725682510397777E-07
  9.1442079883772553E-01  8.0697464498511326E-02  7.5853980160922229E-07
  9.2353089983060588E-01  8.0506381599640298E-02  7.4990765493339911E-07
  9.3273176203561747E-01  8.0307283667146970E-02  7.4135971324792176E-07
  9.4202428967957708E-01  8.0105875320639855E-02  7.3289531496245934E-07
  9.5140939599784469E-01  7.9916459070639975E-02  7.2451380668244217E-07
  9.6088800332406910E-01  7.9735824805388142E-02  7.1621454510536947E-07
  9.7046104318083515E-01  7.9556340988245197E-02  7.0799690645883239E-07
  9.8012945637120685E-01  7.9365264246737691E-02  6.9986030477693733E-07
  9.8989419307119009E-01  7.9172939490580879E-02  6.9180420133497366E-07
  9.9975621292310790E-01  7.8964849161799702E-02  6.8382808850505298E-07
  1.0097164851299139E+00  7.8757093574871082E-02  6.7593144906617435E-07
  1.0197759885504414E+00  7.8546375047635147E-02  6.6811370636485972E-07
  1.0299357117956007E+00  7.8361659378378676E-02  6.6037418342258009E-07
  1.0401966533255371E+00  7.8165781531935458E-02  6.5271208226952886E-07
  1.0505598215477567E+00  7.7995527874662546E-02  6.4512651247757624E-07
  1.0610262349162263E+00  7.7804846068077096E-02  6.3761657267904791E-07
  1.0715969220314674E+00  7.7616889200750327E-02  6.3018137248665229E-07
  1.0822729217416385E+00  7.7456776902531707E-02  6.2282003177110801E-07
  1.0930552832446336E+00  7.7279622926883285E-02  6.1553167622991873E-07
  1.1039450661911905E+00  7.7082378121888132E-02  6.0831542795662685E-07
  1.1149433407890301E+00  7.6885245022120310E-02  6.0117040356936788E-07
  1.1260511879080346E+00  7.6686324397132993E-02  5.9409573566756333E-07
  1.1372696991864679E+00  7.6483778527633536E-02  5.8709061859448554E-07
  1.1485999771382596E+00  7.6270864070672600E-02  5.8015436436451175E-07
  1.1600431352613574E+00  7.6091260546161207E-02  5.7328644941985830E-07
  1.1716002981471547E+00  7.5909281114419941E-02  5.6648653873615896E-07
  1.1832726015910127E+00  7.5727277841827839E-02  5.5975446570502058E-07
  1.1950611927038826E+00  7.5540694665850741E-02  5.5309011634159492E-07
  1.2069672300250396E+00  7.5348681508912344E-02  5.4649336726311994E-07
  1.2189918836359386E+00  7.5154218368710696E-02  5.3996408381092993E-07
  1.2311363352752052E+00  7.4950652899781589E-02  5.3350212221773832E-07
  1.2434017784547757E+00  7.4772148973459240E-02  5.2710733639955480E-07
  1.2557894185771876E+00  7.4586810294898845E-02  5.2077958442510033E-07
  1.2683004730540426E+00  7.4420512877240705E-02  5.1451872221616900E-07
  1.2809361714256524E+00  7.4269790078232312E-02  5.0832457836928728E-07
  1.2936977554818700E+00  7.4101986273489878E-02  5.0219691536974933E-07
  1.3065864793841282E+00  7.3918404957113479E-02  4.9613538989968912E-07
  1.3196036097886970E+00  7.3722328504379125E-02  4.9013952479987258E-07
  1.3327504259711642E+00  7.3523686460466239E-02  4.8420870387584464E-07
  1.3460282199521565E+00  7.3329695159005642E-02  4.7834223767136133E-07
  1.3594382966243150E+00  7.3132642683276960E-02  4.7253943564412714E-07
  1.3729819738805391E+00  7.2952156928424092E-02  4.6679961350015606E-07
  1.3866605827434983E+00  7.2769994247031414E-02  4.6112209244625328E-07
  1.4004754674964430E+00  7.2590054604305482E-02  4.5550619436245735E-07
  1.4144279858153181E+00  7.2411375645928353E-02  4.4995123104553241E-07
  1.4285195089021863E+00  7.2226339825278124E-02  4.4445649412701655E-07
  1.4427514216199844E+00  7.2050784752315480E-02  4.3902125402189741E-07
  1.4571251226286286E+00  7.1877000389858517E-02  4.3364477111082289E-07
  1.4716420245224642E+00  7.1709295666071080E-02  4.2832631615679157E-07
  1.4863035539690901E+00  7.1527050564229908E-02  4.2306519306952793E-07
  1.5011111518495681E+00  7.1339860901546481E-02  4.1786075679177501E-07
  1.5160662734000301E+00  7.1171071343278713E-02  4.1271240859169237E-07
  1.5311703883546868E+00  7.0989260135413595E-02  4.0761956619589771E-07
  1.5464249810902719E+00  7.0788432690161412E-02  4.0258165610475671E-07
  1.5618315507719240E+00  7.0604412943095399E-02  3.9759811352456194E-07
  1.5773916115005124E+00  7.0434297068574736E-02  3.9266838409517542E-07
  1.5931066924614403E+00  7.0258165817095000E-02  3.8779193062359563E-07
  1.6089783380749301E+00  7.0084242036516087E-02  3.8296824256659947E-07
  1.6250081081478005E+00  6.9896846082017697E-02  3.7819684176816991E-07
  1.6411975780267583E+00  6.9734685003269750E-02  3.7347727990511962E-07
  1.6575483387532177E+00  6.9576018526047029E-02  3.6880912725021246E-07
  1.6740619972196658E+00  6.9395468834688653E-02  3.6419195619946560E-07
  1.6907401763275762E+00  6.9225538283689617E-02  3.5962532475597302E-07
  1.7075845151469047E+00  6.9044650733562585E-02  3.5510876883897273E-07
  1.7245966690771737E+00  6.8855909124353590E-02  3.5064181753453999E-07
  1.7417783100101532E+00  6.8662987890469429E-02  3.4622400245382008E-07
  1.7591311264941709E+00  6.8489318927810378E-02  3.4185485806214660E-07
  1.7766568239000589E+00  6.8308498918592406E-02  3.3753392164532985E-07
  1.7943571245887489E+00  6.8126178960368447E-02  3.3326073179880502E-07
  1.8122337680805365E+00  6.7965915526049747E-02  3.2903482624733279E-07
  1.8302885112260396E+00  6.7806172723335001E-02  3.2485574298994352E-07
  1.8485231283788552E+00  6.7640540109512162E-02  3.2072302760958097E-07
  1.8669394115699323E+00  6.7461246455358004E-02  3.1663624643755371E-07
  1.8855391706836879E+00  6.7277710360085660E-02  3.1259500235738846E-07
  1.9043242336358799E+00  6.7108761433378974E-02  3.0859894873050588E-07
  1.9232964465532405E+00  6.6940874837195838E-02  3.0464779491984634E-07
  1.9424576739549111E+00  6.6756945932149606E-02  3.0074127829825222E-07
  1.9618097989356815E+00  6.6589517355523237E-02  2.9687913489033817E-07
  1.9813547233510533E+00  6.6413704889423844E-02  2.9306109691265334E-07
  2.0010943680041393E+00  6.6240368984671796E-02  2.8928689264200314E-07
  2.0210306728344452E+00  6.6066889656138314E-02  2.8555624635335998E-07
  2.0411655971085136E+00  6.5890167514364439E-02  2.8186887919457028E-07
  2.0615011196124713E+00  6.5724742684191220E-02  2.7822451096163160E-07
  2.0820392388464990E+00  6.5555544682332781E-02  2.7462286214163837E-07
  2.1027819732212425E+00  6.5397798001822841E-02  2.7106365554505397E-07
  2.1237313612561630E+00  6.5234795333760420E-02  2.6754661704061522E-07
  2.1448894617798842E+00  6.5071831329493207E-02  2.6407147525415447E-07
  2.1662583541325242E+00  6.4911133154015477E-02  2.6063796040995171E-07
  2.1878401383700465E+00  6.4753646119615108E-02  2.5724580188614683E-07
  2.2096369354706389E+00  6.4578318485554190E-02  2.5389472557242168E-07
  2.2316508875431653E+00  6.4402999569007233E-02  2.5058445356231835E-07
  2.2538841580376801E+00  6.4227445586530332E-02  2.4731470436289827E-07
  2.2763389319580405E+00  6.4039150017529231E-02  2.4408519297818201E-07
  2.2990174160766434E+00  6.3834225158467067E-02  2.4089563367147365E-07
  2.3219218391513050E+00  6.3667648258633497E-02  2.3774575534420240E-07
  2.3450544521442827E+00  6.3497820267268454E-02  2.3463533916440446E-07
  2.3684175284435001E+00  6.3330888428609566E-02  2.3156427929385135E-07
  2.3920133640859658E+00  6.3194292964618981E-02  2.2853265724351877E-07
  2.4158442779834206E+00  6.3034004835398200E-02  2.2554081304444372E-07
  2.4399126121502217E+00  6.2883308032428475E-02  2.2258939512073582E-07
  2.4642207319335236E+00  6.2715597850326765E-02  2.1967932058584135E-07
  2.4887710262457245E+00  6.2555955250565273E-02  2.1681154346501029E-07
  2.5135659077992405E+00  6.2378672211177828E-02  2.1398695686096023E-07
  2.5386078133436203E+00  6.2210725916179196E-02  2.1120639288283580E-07
  2.5638992039050241E+00  6.2039177574033787E-02  2.0847062495734655E-07
  2.5894425650280741E+00  6.1869896918388741E-02  2.0578036939840774E-07
  2.6152404070201327E+00  6.1704998594014189E-02  2.0313628139676377E-07
  2.6412952651980048E+00  6.1545886057127706E-02  2.0053893864770932E-07
  2.6676097001371009E+00  6.1373666868542953E-02  1.9798880973357829E-07
  2.6941862979230704E+00  6.1220031294278138E-02  1.9548621044827456E-07
  2.7210276704059684E+00  6.1057628953667890E-02  1.9303125672570525E-07
  2.7481364554569292E+00  6.0895821642355852E-02  1.9062382551832053E-07
  2.7755153172274083E+00  6.0735391334608320E-02  1.8826354809678426E-07
  2.8031669464110025E+00  6.0579728785603158E-02  1.8594993795149909E-07
  2.8310940605078896E+00  6.0414347408997794E-02  1.8368250358559510E-07
  2.8592994040918862E+00  6.0259638088422919E-02  1.8146075711080105E-07
  2.8877857490801748E+00  6.0108570571566280E-02  1.7928421427888463E-07
  2.9165558950057253E+00  5.9935318716519116E-02  1.7715239519738885E-07
  2.9456126692924167E+00  5.9784469671899237E-02  1.7506483860963040E-07
  2.9749589275328998E+00  5.9624400769274506E-02  1.7302115456372642E-07
  3.0045975537692478E+00  5.9469153084989214E-02  1.7102113353943379E-07
  3.0345314607763831E+00  5.9315683291429826E-02  1.6906491158221819E-07
  3.0647635903483303E+00  5.9154484212545641E-02  1.6715317016614400E-07
  3.0952969135873274E+00  5.8990641737006196E-02  1.6528733320864402E-07
  3.1261344311958212E+00  5.8131648525143333E-02  1.6346970350484996E-07
  3.1572791737713546E+00  3.2735532560955883E-05  1.6170317373844557E-07
  3.1887342021044072E+00  1.5963680883893300E-05  1.5999063229444235E-07
  3.2205026074792027E+00  1.0511100991842960E-05  1.5833486730382425E-07
  3.2525875119775067E+00  7.8101101805530169E-06  1.5673857856756281E-07
  3.2849920687854426E+00  6.1982595970728138E-06  1.5520439046416792E-07
  3.3177194625033923E+00  5.1281037109201956E-06  1.5373486001377409E-07
  3.3507729094589602E+00  4.3665883298033279E-06  1.5233246276001572E-07
  3.3841556580230550E+00  3.7976733246677282E-06  1.5099953785269502E-07
  3.4178709889291348E+00  3.3570722784228012E-06  1.4973818391913966E-07
  3.4519222155956291E+00  3.0062877428412178E-06  1.4855011198671114E-07
  3.4863126844515593E+00  2.7208527023912638E-06  1.4743647698235446E-07
  3.5210457752654176E+00  2.4844612047080119E-06  1.4639772156359021E-07
  3.5561249014773257E+00  2.2857965678642240E-06  1.4543363500041492E-07
  3.5915535105344834E+00  2.1167624304546721E-06  1.4454389379889615E-07
  3.6273350842299732E+00  1.9714262951923117E-06  1.4372827531227402E-07
  3.6634731390449491E+00  1.8453427325540226E-06  1.4298666359569501E-07
  3.6999712264942115E+00  1.7351153899159998E-06  1.4231905257687459E-07
  3.7368329334752390E+00  1.6381052315371263E-06  1.4172554765460427E-07
  3.7740618826206975E+00  1.5522310353771213E-06  1.4120635562884268E-07
  3.8116617326544628E+00  1.4758297795249417E-06  1.4076174883402912E-07
  3.8496361787511790E+00  1.4075568710023711E-06  1.4039199206147911E-07
  3.8879889528994087E+00  1.3463134023937501E-06  1.4009722793453901E-07
  3.9267238242684059E+00  1.2911918792261526E-06  1.3987732670016534E-07
  3.9658445995785319E+00  1.2414337688102399E-06  1.3973171769836535E-07
  4.0053551234753524E+00  1.1963915626501005E-06  1.3965928742855203E-07
  4.0452592789074995E+00  1.1555085145256159E-06  1.3965871049982549E-07
  4.0855609875082637E+00  1.1183108670692095E-06  1.3972874362097885E-07
  4.1262642099809792E+00  1.0843937064324414E-06  1.3986823654171331E-07
  4.1673729464882978E+00  1.0534089821992314E-06  1.4007612467138165E-07
  4.2088912370452967E+00  1.0250559310227891E-06  1.4035142155569639E-07
  4.2508231619165011E+00  9.9907334736411435E-07  1.4069320062708611E-07
  4.2931728420169026E+00  9.7523325777164727E-07  1.4110054114334788E-07
  4.3359444393169424E+00  9.5333562164450936E-07  1.4157240754131720E-07
  4.3791421572515041E+00  9.3320368204699692E-07  1.4210743411186203E-07
  4.4227702411330725E+00  9.1467943906031389E-07  1.4270359889524874E-07
  4.4668329785688821E+00  8.9761800234746961E-07  1.4335779343290104E-07
  4.5113346998823163E+00  8.8187665006108937E-07  1.4406536461097898E-07
  4.5562797785385039E+00  8.6730921965827560E-07  1.4482041198512341E-07
  4.6016726315740666E+00  8.5377997419595914E-07  1.4561669314527496E-07
  4.6475177200312574E+00  8.4116520161545971E-07  1.4644775061846977E-07
  4.6938195493963626E+00  8.2935156607239041E-07  1.4730689033664094E-07
  4.7405826700424658E+00  8.1823472016784457E-07  1.4818716317803509E-07
  4.7878116776766708E+00  8.0771814207022186E-07  1.4908135261687368E-07
  4.8355112137917384E+00  7.9771217753357117E-07  1.4998197950662277E-07
  4.8836859661222167E+00  7.8813328913141173E-07  1.5088134197187552E-07
  4.9323406691051686E+00  7.7890355134963141E-07  1.5177161224790980E-07
  4.9814801043454375E+00  7.6995051266502197E-07  1.5264501168155676E-07
  5.0311091010855504E+00  7.6120778761645575E-07  1.5349407622047121E-07
  5.0812325366803481E+00  7.5261767094374774E-07  1.5431200160641528E-07
  5.1318553370763009E+00  7.4413459585932660E-07  1.5509273299074141E-07
  5.1829824772955941E+00  7.3571891549156626E-07  1.5583033392954246E-07
  5.2346189819250881E+00  7.2733342461685187E-07  1.5651875516620492E-07
  5.2867699256100984E+00  7.1894319219553490E-07  1.5715184969364694E-07
  5.3394404335530936E+00  7.1051547314455891E-07  1.5772339323227643E-07
  5.3926356820174410E+00  7.0201964619540131E-07  1.5822710938800187E-07
  5.4463608988360379E+00  6.9342718822980030E-07  1.5865671082206951E-07
  5.5006213639251182E+00  6.8471171507506599E-07  1.5900597905055722E-07
  5.5554224098031746E+00  6.7584915619164392E-07  1.5926891656233907E-07
  5.6107694221149504E+00  6.6681821660831304E-07  1.5944001304924138E-07
  5.6666678401607760E+00  6.5760150900931867E-07  1.5951466537326117E-07
  5.7231231574311083E+00  6.4818851195605004E-07  1.5948976970956701E-07
