#T(MeV)	Chi2B			Chi2Q			Chi11QB	
10	0.21776041621564618	0.5484288355713719	0.11290800314007954
12	0.21980659224452234	0.5512861126565642	0.1116729281675196
14	0.22199225110683019	0.553962187975567	0.10997768576190654
16	0.22468520919863183	0.5569739896421837	0.10760357124492007
18	0.2279778731011839	0.5604854997698239	0.10452975356745607
20	0.23180993647945658	0.5644742265529044	0.10085435359399113
22	0.2360524350669612	0.5688327049645772	0.09672783483065484
24	0.2405594884531546	0.5734280084819919	0.09230903157568271
26	0.24519583153525745	0.5781330536256908	0.08774139055517582
28	0.24984867704338828	0.5828404262648224	0.08314307217804581
30	0.25443060089733394	0.5874663489523093	0.0786051471576415
32	0.25887789200790695	0.5919496559506353	0.07419387193482141
34	0.26314701201066504	0.5962486291791453	0.06995460515781526
36	0.26721060289454546	0.6003372402463729	0.06591603445728197
38	0.2710537448571898	0.6042015588482829	0.06209406913390325
40	0.27467075032411253	0.6078366460808131	0.05849514543258813
42	0.278062560892635	0.611244018437428	0.05511889665215805
44	0.28123470923867416	0.6144296559610606	0.05196023748371231
46	0.284195766158755	0.6174024817902479	0.04901094947273782
48	0.2869561834719344	0.6201732283043297	0.04626086136046087
50	0.289527449307037	0.6227536092990004	0.04369871068492631
60	0.29995874865191574	0.6332176667367804	0.03330016943294889
70	0.30731138246416423	0.640590297591187	0.025967532662858617
80	0.31259400417601146	0.6458876366715087	0.020699628319485908
90	0.31647881070829953	0.6497898922490413	0.01683227083244221
100	0.31940585993824777	0.6527510534012668	0.013939333524771197
110	0.3216681874369114	0.6550876222633354	0.011751247389512665
120	0.32346724980029207	0.657034941931665	0.010100442331080817
130	0.3249466285738951	0.6587789364493002	0.008885679301509936
140	0.32621199512257604	0.6604721833002392	0.008048193055087166
150	0.32734289593481336	0.6622411702590506	0.007555378389423911
160	0.32839984285787793	0.6641892906881381	0.007389604972382363
170	0.32942877792230346	0.6663982570077587	0.007540701163151836
180	0.33046408999872473	0.668929293449626	0.008001113452176523
190	0.33153082541071915	0.6718246502145997	0.008762999393161386
200	0.3326464283332265	0.6751095355645563	0.009816678898103365
210	0.3338221798519273	0.6787943603390046	0.01115000063515001
220	0.3350644184547403	0.682877127790724	0.01274829088124349
230	0.33637558322225236	0.6873458103882163	0.014594643943711655
240	0.3377551027078816	0.6921805920767793	0.016670386661016057
250	0.3392001454680892	0.6973558967583016	0.01895560582212319
260	0.34070624605783933	0.7028421609910548	0.021429668875376118
270	0.34226781989518457	0.7086073375560862	0.02407169776571713
280	0.3438785802846626	0.7146181363814779	0.026860975812152632
290	0.34553187061111035	0.7208410219739031	0.029777280751682317
300	0.3472209239910634	0.7272429930456513	0.03280114506352452
310	0.3489390617998742	0.7337921730722148	0.035914049472466264
320	0.3506798413359594	0.7404582404326133	0.03909855776069454
330	0.35243716170509704	0.7472127252594538	0.042338401849259716
340	0.3542053358167975	0.7540291976177316	0.045618525984136654
350	0.3559791352537153	0.7608833687178842	0.04892509821045363
360	0.357753813734931	0.7677531238720254	0.05224549640216347
370	0.3595251139611231	0.7746185030250063	0.055568275102760245
380	0.36128926180900056	0.7814616420475349	0.0588831184295337
390	0.3630429511311613	0.7882666856211169	0.062180783358794234
400	0.3647833218086368	0.7950196804899374	0.06545303687266382
410	0.3665079331872678	0.801708456095328	0.0686925897207924
420	0.36821473459543885	0.8083224981234192	0.07189302893254157
430	0.36990203427897117	0.8148528192581709	0.07504875070022862
440	0.3715684677898926	0.8212918304109942	0.07815489483120905
450	0.3732129666195176	0.8276332148642005	0.08120728162516527
460	0.3748347276655828	0.8338718070916624	0.08420235176049687
470	0.3764331839604289	0.8400034774805842	0.0871371095597265
480	0.37800797695646904	0.8460250237510857	0.09000906983814758
490	0.37955893056105383	0.8519340695359304	0.09281620841382268
500	0.3810860270307881	0.8577289703245242	0.09555691626294802
510	0.38258938477150345	0.86340872677912	0.09822995723611302
520	0.3840692380411685	0.8689729052851185	0.10083442920278157
530	0.3855259185162595	0.8744215654914894	0.1033697284589705
540	0.3869598386552221	0.8797551945234673	0.10583551721302312
550	0.38837147677368633	0.8849746475010106	0.10823169395363796
560	0.38976136373345016	0.8900810939674975	0.11055836650059714
570	0.3911300711396033	0.895075969819283	0.11281582754007627
580	0.39247820093642055	0.899960934324407	0.11500453245156592
590	0.3938063762918934	0.9047378318248532	0.11712507924106635
600	0.39511523366237755	0.9094086577295317	0.1191781904047767
610	0.39640541593193657	0.9139755284214518	0.12116469655757864
620	0.397677566525507	0.918440654722807	0.12308552167179307
630	0.3989323244001873	0.9228063185828987	0.12494166978252419
640	0.40017031982475026	0.9270748526763237	0.12673421302682328
650	0.4013921708635316	0.9312486226214941	0.12846428089443082
660	0.40259848048698943	0.9353300115518639	0.13013305057788502
670	0.4037898342374467	0.9393214067943944	0.13174173831950098
680	0.40496679838421773	0.943225188429498	0.13329159166106247
690	0.4061299185085548	0.9470437195284492	0.13478388251133966
700	0.40727971846386213	0.9507793378810026	0.13621990095327824
710	0.40841669966209143	0.9544343490445533	0.1376009497203704
720	0.4095413406419907	0.9580110205620151	0.13892833927803377
730	0.41065409687941207	0.9615115772106376	0.1402033834518135
740	0.4117554008040665	0.9649381971577923	0.14142739554965933
750	0.41284566199096706	0.9682930089124179	0.14260168493048378
760	0.41392526749830033	0.9715780889723464	0.14372755397574577
770	0.4149945823267907	0.9747954600783768	0.14480629542479534
780	0.41605394997837986	0.9779470899953583	0.14583919003859855
790	0.41710369309487627	0.9810348907494071	0.14682750455965446
800	0.41814411415952346	0.9840607182581135	0.14777248993906653
810	0.41917549624663497	0.9870263722977193	0.14867537980444936
820	0.4201981038063815	0.9899335967576216	0.1495373891448586
830	0.4212121834735502	0.9927840801382848	0.15035971319118435
840	0.42221796489068586	0.995579456253832	0.1511435264724602
850	0.42321566153730517	0.9983213051050979	0.15188998203048756
860	0.42420547155829547	1.0010111538932918	0.15260021077670072
870	0.4251875785873716	1.0036504781494286	0.1532753209746855
880	0.4261621525491684	1.0062407029457914	0.15391639784745453
890	0.4271293504648979	1.008783204197332	0.15452450326753614
900	0.4280893172193432	1.0112793099974213	0.15510067555873494
910	0.42904218631571756	1.0137303020017001	0.15564592937026495
920	0.42998808060456084	1.0161374168352788	0.1561612556261572
930	0.4309271129869975	1.0185018475139607	0.1566476215399658
940	0.4318593870911641	1.0208247448698258	0.1571059706874976
950	0.432784997920983	1.0231072189729455	0.15753722313097937
960	0.43370403247678163	1.0253503405422486	0.15794227558868523
970	0.43461657034753054	1.0275551423396756	0.15832200164461468
980	0.43552268427470486	1.0297226205427294	0.15867725199331972
990	0.43642244068797387	1.0318537360913829	0.15900885471543527
1000	0.4373159002130823	1.0339494160060634	0.15931761557989874
1010	0.4382031181524295	1.03601055467407	0.15960431836921118
1020	0.43908414493896053	1.0380380151023751	0.159869725224454
1030	0.43995902656407404	1.0400326301352247	0.16011457700707657
1040	0.44082780498032503	1.0419952036354183	0.16033959367476835
1050	0.44169051847975305	1.0439265116284873	0.1605454746689812
1060	0.4425472020487092	1.045827303409327	0.16073289931190876
1070	0.4433978877000826	1.0476983026111126	0.16090252721094753
1080	0.44424260478384753	1.0495402082365504	0.1610549986688553
1090	0.4450813802768566	1.051353695651719	0.1611909350980058
1100	0.44591423905281335	1.0531394175429287	0.16131093943730196
1110	0.4467412041333473	1.054898004837149	0.16141559657045446
1120	0.44756229692110644	1.0566300675866853	0.1615054737444724
1130	0.4483775374157679	1.0583361958188668	0.16158112098733113
1140	0.44918694441384627	1.0600169603515917	0.16164307152389906
1150	0.44999053569316094	1.0616729135756262	0.16169184218930427
1160	0.4507883281827956	1.063304590204606	0.16172793383901507
1170	0.4515803381193625	1.0649125079937212	0.16175183175499622
1180	0.4523665811903509	1.0664971684280746	0.16176400604737287
1190	0.45314707266529997	1.0680590573816826	0.16176491205108273
1200	0.4539218275156144	1.0695986457485	0.16175499071727117
1210	0.45469086052348306	1.0711163900455527	0.1617346689985867
1220	0.4554541863808813	1.0726127329904507	0.1617043602286881
1230	0.45621181977905867	1.0740881040533357	0.16166446449521843
1240	0.4569637754892123	1.075542919984633	0.1616153690062082
1250	0.45771006843491135	1.0769775853195074	0.16155744844968467
1260	0.45845071375682256	1.078392492859984	0.16149106534633878
1270	0.4591857268702596	1.0797880241356435	0.16141657039512425
1280	0.4599151235160543	1.0811645498438094	0.16133430281170086
1290	0.4606389198052192	1.0825224302700927	0.16124459065965424
1300	0.46135713225784697	1.0838620156901455	0.16114775117445146
1310	0.4620697778366682	1.0851836467534497	0.1610440910801133
1320	0.46277687397566414	1.0864876548499272	0.16093390689859888
1330	0.4634784386041104	1.0877743624601437	0.1608174852519229
1340	0.46417449016640533	1.0890440834898445	0.16069510315703384
1350	0.4648650476380125	1.090297123589524	0.16056702831349906
1360	0.46555013053783567	1.0915337804597265	0.1604335193840551
1370	0.46622975893731444	1.0927543441427194	0.16029482626809066
1380	0.4669039534665199	1.09395909730118	0.16015119036814002
1390	0.4675727353175082	1.0951483154844883	0.16000284484947186
1400	0.46823612624517263	1.0963222673832151	0.15985001489286982
1410	0.4688941485658238	1.097481215072349	0.1596929179407015
1420	0.4695468251537067	1.098625414243796	0.15953176393638258
1430	0.47019417943565556	1.0997551144286566	0.15936675555734559
1440	0.47083623538406827	1.1008705592097643	0.1591980884416278
1450	0.47147301750837567	1.1019719864249455	0.15902595140819425
1460	0.47210455084516345	1.1030596283614431	0.15885052667111627
1470	0.4727308609470969	1.1041337119419221	0.15867199004772842
1480	0.4733519738707874	1.1051944589024596	0.15849051116088492
1490	0.47396791616372863	1.1062420859628999	0.1583062536354426
1500	0.47457871485042247	1.1072768049899404	0.15811937528909542
1510	0.47518439741780394	1.108298823153293	0.1579300283176852
1520	0.475784991800069	1.109308343075254	0.157738359475116
1530	0.4763805263629977	1.110305562973993	0.15754451024799765
1540	0.47697102988786133	1.1112906768008648	0.15734861702514213
1550	0.4775565315549924	1.1122638743720255	0.15715081126204072
1560	0.4781370609270919	1.1132253414946252	0.1569512196404413
1570	0.47871264793234203	1.1141752600878363	0.15674996422315213
1580	0.47928332284738434	1.1151138082989593	0.15654716260419055
1590	0.4798491162802227	1.1160411606148428	0.15634292805439737
1600	0.48041005915310075	1.1169574879688384	0.15613736966263692
1610	0.48096618268540214	1.1178629578434989	0.15593059247269447
1620	0.4815175183766154	1.1187577343692225	0.15572269761599178
1630	0.48206409798940353	1.1196419784190346	0.1555137824402275
1640	0.4826059535328124	1.120515847699685	0.15530394063406028
1650	0.48314311724564923	1.1213794968392334	0.15509326234793502
1660	0.483675621580061	1.1222330774712896	0.1548818343111677
1670	0.48420349918533584	1.1230767383160583	0.15466973994538652
1680	0.48472678289195226	1.1239106252583415	0.15445705947443716
1690	0.48524550569589364	1.1247348814226357	0.1542438700308485
1700	0.48575970074324826	1.1255496472454576	0.15403024575896113
1710	0.48626940131510676	1.1263550605450243	0.15381625791481074
1720	0.4867746408127734	1.1271512565884108	0.15360197496286399
1730	0.48727545274329975	1.1279383681562958	0.15338746266969622
1740	0.48777187070535266	1.1287165256054073	0.15317278419470198
1750	0.4882639283754219	1.129485856928769	0.15295800017792516
1760	0.48875165949437577	1.130246487813846	0.15274316882509453
1770	0.4892350978543688	1.1309985416986859	0.15252834598994824
1780	0.4897142772861053	1.131742139826137	0.1523135852539264
1790	0.4901892316464614	1.132477401296238	0.1520989380033152
1800	0.49065999480646744	1.1332044431168482	0.15188445350391339
1810	0.4911266006396504	1.1339233802526039	0.15167017897330304
1820	0.49158908301073667	1.1346343256722637	0.1514561596507904
1830	0.4920474757647143	1.1353373903945243	0.15124243886509564
1840	0.4925018127162517	1.1360326835323562	0.1510290580998528
1850	0.492952127639472	1.1367203123359377	0.1508160570569937
1860	0.4933984542580777	1.1374003822342322	0.1506034737180767
1870	0.4938408262358245	1.1380729968752759	0.1503913444036269
1880	0.4942792771673421	1.1387382581652274	0.15017970383054335
1890	0.4947138405692747	1.1393962663062074	0.1499685851676581
1900	0.49514454987179574	1.1400471198330384	0.149758020089447
1910	0.4955714384104113	1.140690915648848	0.14954803882802548
1920	0.4959945394181079	1.1413277490596427	0.1493386702234269
1930	0.49641388601781394	1.141957713807869	0.1491299417722411
1940	0.49682951121517205	1.1425809021050024	0.14892187967465842
1950	0.49724144789161845	1.1431974046632098	0.14871450887997284
1960	0.4976497287977606	1.143807310726111	0.14850785313058984
1970	0.4980543865470482	1.1444107080986852	0.14830193500458871
1980	0.49845545360973	1.1450076831763445	0.14809677595688442
1990	0.49885296230709086	1.145598320973215	0.14789239635903328
2000	0.49924694480596177	1.1461827051496496	0.14768881553772611
2010	0.49963743311349534	1.1467609180390015	0.1474860518120108
2020	0.500024459072202	1.1473330406736888	0.1472841225292847
2030	0.5004080543552379	1.1478991528105715	0.14708304410009576
2040	0.5007882504619394	1.1484593329556714	0.14688283203179242
2050	0.5011650787135973	1.1490136583882518	0.14668350096105714
2060	0.5015385702494626	1.149562205184285	0.14648506468536016
2070	0.5019087560229794	1.150105048239328	0.14628753619336932
2080	0.5022756667982371	1.150642261290822	0.14609092769434784
2090	0.5026393331466358	1.1511739169398456	0.1458952506465741
2100	0.502999785443757	1.1517000866723288	0.14570051578481463
2110	0.5033570538664369	1.152220840879755	0.14550673314688112
2120	0.5037111683900319	1.152736248879363	0.14531391209929934
2130	0.5040621587858729	1.1532463789338685	0.14512206136212258
2140	0.5044100546189014	1.1537512982707163	0.1449311890329137
2150	0.5047548852454811	1.1542510731008861	0.14474130260992396
2160	0.505096679811367	1.1547457686372433	0.14455240901450955
2170	0.5054354672499062	1.1552354491125394	0.1443645146127272
2180	0.5057712762802614	1.1557201777968638	0.14417762523634087
2190	0.5061041354059244	1.156200017014834	0.1439917462029855
2200	0.5064340729133088	1.1566750281623397	0.14380688233572225
2210	0.5067611168704995	1.1571452717229176	0.1436230379819184
2220	0.5070852951261404	1.1576108072837732	0.1434402170314924
2230	0.5074066353084525	1.1580716935514475	0.1432584229345425
2240	0.5077251648243823	1.1585279883671438	0.14307765871837924
2250	0.5080409108588713	1.1589797487217244	0.1428979270039818
2260	0.5083539003742445	1.1594270307703856	0.14271923002189646
2270	0.5086641601097122	1.1598698898470217	0.14254156962759734
2280	0.5089717165809812	1.160308380478285	0.14236494731632282
2290	0.5092765960799712	1.160742556397353	0.14218936423741046
2300	0.5095788246746317	1.1611724705574056	0.14201482120814218
2310	0.5098784282088552	1.161598175144828	0.1418413187271177
2320	0.5101754323024845	1.1620197215921417	0.1416688569871727
2330	0.5104698623514067	1.1624371605906676	0.1414974358878543
2340	0.5107617435277344	1.1628505421029396	0.14132705504747067
2350	0.5110511007800675	1.1632599153748622	0.14115771381472708
2360	0.5113379588338332	1.163665328947629	0.14098941127996284
2370	0.5116223421916994	1.1640668306694015	0.14082214628600281
2380	0.5119042751340619	1.1644644677067584	0.1406559174386346
2390	0.5121837817195967	1.1648582865559183	0.14049072311672506
2400	0.5124608857858794	1.165248333053747	0.14032656148198813
2410	0.512735610950066	1.1656346523885457	0.1401634304884135
2420	0.513007980609631	1.1660172891106328	0.14000132789137087
2430	0.5132780179431645	1.1663962871427258	0.13984025125639682
2440	0.5135457459112204	1.1667716897901173	0.13968019796767656
2450	0.513811187257216	1.167143539750663	0.13952116523623104
2460	0.5140743645083808	1.1675118791245807	0.13936315010781897
2470	0.5143352999767494	1.1678767494240598	0.13920614947056076
2480	0.5145940157601987	1.168238191582695	0.1390501600622977
2490	0.5148505337435256	1.1685962459647439	0.1388951784776925
2500	0.5151048755995644	1.168950952374208	0.13874120117507904
2510	0.5153570627903397	1.1693023500637523	0.13858822448307306
2520	0.5156071165682535	1.1696504777434542	0.13843624460694726
2530	0.5158550579773077	1.169995373589398	0.1382852576347826
2540	0.5161009078543527	1.1703370752521056	0.13813525954340022
2550	0.5163446868303682	1.1706756198648205	0.13798624620408412
2560	0.51658641533177	1.171011044051638	0.13783821338809804
2570	0.5168261135817408	1.1713433839354876	0.13769115677200616
2580	0.5170638016015865	1.1716726751459776	0.13754507194280452
2590	0.5172994992121125	1.1719989528270904	0.13739995440286568
2600	0.5175332260350207	1.172322251644749	0.13725579957470757
2610	0.5177650014943274	1.1726426057942432	0.13711260280558857
2620	0.5179948448177949	1.1729600490075278	0.13697035937193802
2630	0.5182227750383829	1.173274614560389	0.1368290644836233
2640	0.518448810995711	1.1735863352794857	0.1366887132880636
2650	0.5186729713375386	1.1738952435492702	0.13654930087419287
2660	0.5188952745212526	1.1742013713187818	0.1364108222762765
2670	0.5191157388153693	1.174504750108327	0.13627327247758836
2680	0.5193343823010454	1.1748054110160429	0.1361366464139519
2690	0.5195512228735971	1.1751033847243444	0.13600093897715032
2700	0.5197662782440269	1.1753987015062628	0.13586614501820893
2710	0.5199795659405579	1.175691391231672	0.13573225935055588
2720	0.5201911033101745	1.1759814833734132	0.13559927675306443
2730	0.5204009075201647	1.176269007013309	0.13546719197297963
2740	0.5206089955596706	1.1765539908480762	0.13533599972873517
2750	0.5208153842412391	1.1768364631951418	0.13520569471266358
2760	0.521020090202376	1.1771164519983537	0.13507627159360147
2770	0.5212231299071016	1.1773939848336008	0.1349477250193975
2780	0.5214245196475065	1.177669088914334	0.13482004961932081
2790	0.5216242755453087	1.1779417910969956	0.13469324000637828
2800	0.5218224135534254	1.178212117886375	0.13456729077952417
2810	0.5220189494574609	1.1784800954407886	0.13444219652586692
2820	0.5222138988773596	1.178745749577342	0.13431795182262274
2830	0.52240727726889	1.1790091057769376	0.13419455123915752
2840	0.5225990999252076	1.1792701891892796	0.13407198933886455
2850	0.5227893819783994	1.1795290246377839	0.13395026068098492
2860	0.5229781384010237	1.1797856366244002	0.13382935982235272
2870	0.5231653840076449	1.1800400493343601	0.13370928131907045
2880	0.5233511334563641	1.1802922866408445	0.13359001972811646
2890	0.5235354012503435	1.1805423721095716	0.13347156960888484
2900	0.5237182017393264	1.1807903290033153	0.13335392552466263
2910	0.5238995491211492	1.181036180286344	0.13323708204404555
2920	0.5240794574432477	1.1812799486287884	0.13312103374229284
2930	0.5242579406041572	1.1815216564109403	0.1330057752026258
2940	0.5244350123550036	1.1817613257274773	0.13289130101747026
2950	0.5246106863009884	1.1819989783916225	0.13277760578964581
2960	0.5247849759028653	1.1822346359392333	0.13266468413350263
2970	0.524957894478409	1.1824683196328263	0.1325525306760083
2980	0.5251294552038743	1.1827000504655367	0.1324411400577879
2990	0.5252996711154487	1.1829298491650124	0.13233050693411502
3000	0.525468555110694	1.1831577361972474	0.13222062597585937
3010	0.5256361199499798	1.1833837317703504	0.13211149187039067
3020	0.5258023782579083	1.183607855838257	0.13200309932244048
3030	0.5259673425247282	1.18383012810438	0.1318954430549235
