# !T (MeV) d\mu_e/dL_\mu d\mu_\mu/dL_\mu d\mu_\tau/dL_\mu d\mu_{\nu_e}/dL_\mu d\mu_{\nu_\mu}/dL_\mu d\mu_{\nu_\tau}/dL_\mu d\mu_Q/dL_\mu d\mu_B/dL_\mu
      1.0000e+01     -4.7602e-03      5.9762e+00     -1.4277e-02      9.5167e-03      5.9905e+00      3.7489e-76      1.4277e-02     -7.5977e-03
      1.5000e+01     -8.8043e-02      5.5592e+00     -2.6410e-01      1.7605e-01      5.8233e+00      1.9007e-49      2.6410e-01     -1.3760e-01
      2.0000e+01     -2.8697e-01      4.5508e+00     -8.6085e-01      5.7388e-01      5.4116e+00      2.8257e-36      8.6085e-01     -4.4386e-01
      2.5000e+01     -4.7155e-01      3.5694e+00     -1.4146e+00      9.4303e-01      4.9840e+00      1.7349e-28      1.4146e+00     -7.2443e-01
      3.0000e+01     -5.8309e-01      2.9001e+00     -1.7492e+00      1.1661e+00      4.6493e+00      2.3190e-23      1.7492e+00     -8.9066e-01
      3.5000e+01     -6.3767e-01      2.4814e+00     -1.9130e+00      1.2753e+00      4.3944e+00      9.7048e-20      1.9130e+00     -9.6791e-01
      4.0000e+01     -6.5903e-01      2.2169e+00     -1.9771e+00      1.3180e+00      4.1939e+00      4.7538e-17      1.9771e+00     -9.9237e-01
      4.5000e+01     -6.6266e-01      2.0436e+00     -1.9879e+00      1.3253e+00      4.0315e+00      5.6350e-15      1.9879e+00     -9.8744e-01
      5.0000e+01     -6.5717e-01      1.9257e+00     -1.9715e+00      1.3143e+00      3.8972e+00      2.4919e-13      1.9715e+00     -9.6623e-01
      5.5000e+01     -6.4717e-01      1.8429e+00     -1.9415e+00      1.2943e+00      3.7844e+00      5.4056e-12      1.9415e+00     -9.3589e-01
      6.0000e+01     -6.3502e-01      1.7833e+00     -1.9050e+00      1.2700e+00      3.6884e+00      6.8963e-11      1.9050e+00     -9.0041e-01
      6.5000e+01     -6.2196e-01      1.7397e+00     -1.8659e+00      1.2439e+00      3.6056e+00      5.8620e-10      1.8659e+00     -8.6216e-01
      7.0000e+01     -6.0860e-01      1.7074e+00     -1.8258e+00      1.2172e+00      3.5332e+00      3.6274e-09      1.8258e+00     -8.2260e-01
      7.5000e+01     -5.9518e-01      1.6835e+00     -1.7855e+00      1.1904e+00      3.4690e+00      1.7429e-08      1.7855e+00     -7.8270e-01
      8.0000e+01     -5.8180e-01      1.6660e+00     -1.7454e+00      1.1636e+00      3.4114e+00      6.8224e-08      1.7454e+00     -7.4311e-01
      8.5000e+01     -5.6845e-01      1.6535e+00     -1.7053e+00      1.1369e+00      3.3588e+00      2.2566e-07      1.7053e+00     -7.0430e-01
      9.0000e+01     -5.5503e-01      1.6451e+00     -1.6651e+00      1.1101e+00      3.3102e+00      6.4992e-07      1.6651e+00     -6.6656e-01
      9.5000e+01     -5.4146e-01      1.6400e+00     -1.6244e+00      1.0829e+00      3.2644e+00      1.6610e-06      1.6244e+00     -6.3008e-01
      1.0000e+02     -5.2763e-01      1.6379e+00     -1.5829e+00      1.0553e+00      3.2207e+00      3.8377e-06      1.5829e+00     -5.9497e-01
      1.0500e+02     -5.1341e-01      1.6383e+00     -1.5402e+00      1.0268e+00      3.1785e+00      8.1298e-06      1.5402e+00     -5.6127e-01
      1.1000e+02     -4.9870e-01      1.6410e+00     -1.4961e+00      9.9739e-01      3.1370e+00      1.5973e-05      1.4961e+00     -5.2896e-01
      1.1500e+02     -4.8341e-01      1.6457e+00     -1.4502e+00      9.6682e-01      3.0960e+00      2.9383e-05      1.4502e+00     -4.9800e-01
      1.2000e+02     -4.6747e-01      1.6524e+00     -1.4024e+00      9.3495e-01      3.0549e+00      5.1000e-05      1.4024e+00     -4.6833e-01
      1.2500e+02     -4.5086e-01      1.6609e+00     -1.3525e+00      9.0172e-01      3.0135e+00      8.4069e-05      1.3526e+00     -4.3989e-01
      1.3000e+02     -4.3346e-01      1.6711e+00     -1.3003e+00      8.6692e-01      2.9714e+00      1.3230e-04      1.3004e+00     -3.9428e-01
      1.3500e+02     -4.1529e-01      1.6828e+00     -1.2457e+00      8.3058e-01      2.9287e+00      1.9969e-04      1.2459e+00     -3.3800e-01
      1.4000e+02     -3.9643e-01      1.6959e+00     -1.1890e+00      7.9286e-01      2.8852e+00      2.9022e-04      1.1893e+00     -2.8996e-01
      1.4500e+02     -3.7901e-01      1.7080e+00     -1.1366e+00      7.5802e-01      2.8450e+00      4.0974e-04      1.1370e+00     -2.5126e-01
      1.5000e+02     -3.6353e-01      1.7186e+00     -1.0900e+00      7.2706e-01      2.8092e+00      5.6462e-04      1.0906e+00     -2.1652e-01
      1.5500e+02     -3.5066e-01      1.7268e+00     -1.0512e+00      7.0132e-01      2.7788e+00      7.6335e-04      1.0520e+00     -1.8583e-01
      1.6000e+02     -3.3962e-01      1.7336e+00     -1.0179e+00      6.7924e-01      2.7525e+00      1.0133e-03      1.0189e+00     -1.6067e-01
      1.6500e+02     -3.3009e-01      1.7392e+00     -9.8896e-01      6.6019e-01      2.7295e+00      1.3226e-03      9.9028e-01     -1.4067e-01
      1.7000e+02     -3.2184e-01      1.7437e+00     -9.6383e-01      6.4368e-01      2.7093e+00      1.7000e-03      9.6553e-01     -1.2405e-01
      1.7500e+02     -3.1467e-01      1.7475e+00     -9.4186e-01      6.2934e-01      2.6915e+00      2.1545e-03      9.4401e-01     -1.0975e-01
      1.8000e+02     -3.0843e-01      1.7506e+00     -9.2260e-01      6.1686e-01      2.6759e+00      2.6952e-03      9.2529e-01     -9.8024e-02
      1.8500e+02     -3.0300e-01      1.7530e+00     -9.0567e-01      6.0600e-01      2.6620e+00      3.3315e-03      9.0900e-01     -8.8891e-02
      1.9000e+02     -2.9826e-01      1.7550e+00     -8.9070e-01      5.9652e-01      2.6498e+00      4.0726e-03      8.9478e-01     -8.1188e-02
      1.9500e+02     -2.9412e-01      1.7566e+00     -8.7743e-01      5.8824e-01      2.6389e+00      4.9275e-03      8.8235e-01     -7.4531e-02
      2.0000e+02     -2.9050e-01      1.7578e+00     -8.6559e-01      5.8100e-01      2.6293e+00      5.9050e-03      8.7149e-01     -6.8440e-02
      2.0500e+02     -2.8733e-01      1.7587e+00     -8.5497e-01      5.7466e-01      2.6207e+00      7.0134e-03      8.6198e-01     -6.2463e-02
      2.1000e+02     -2.8456e-01      1.7594e+00     -8.4542e-01      5.6912e-01      2.6131e+00      8.2606e-03      8.5368e-01     -5.6871e-02
      2.1500e+02     -2.8215e-01      1.7599e+00     -8.3678e-01      5.6429e-01      2.6063e+00      9.6542e-03      8.4644e-01     -5.1876e-02
      2.2000e+02     -2.8004e-01      1.7601e+00     -8.2893e-01      5.6009e-01      2.6003e+00      1.1201e-02      8.4013e-01     -4.7310e-02
      2.2500e+02     -2.7821e-01      1.7602e+00     -8.2173e-01      5.5643e-01      2.5949e+00      1.2906e-02      8.3464e-01     -4.3088e-02
      2.3000e+02     -2.7662e-01      1.7602e+00     -8.1508e-01      5.5324e-01      2.5901e+00      1.4774e-02      8.2986e-01     -3.9158e-02
      2.3500e+02     -2.7523e-01      1.7601e+00     -8.0889e-01      5.5046e-01      2.5858e+00      1.6810e-02      8.2570e-01     -3.5486e-02
      2.4000e+02     -2.7402e-01      1.7599e+00     -8.0306e-01      5.4805e-01      2.5819e+00      1.9015e-02      8.2207e-01     -3.2056e-02
      2.4500e+02     -2.7297e-01      1.7596e+00     -7.9752e-01      5.4594e-01      2.5785e+00      2.1393e-02      8.1891e-01     -2.8855e-02
      2.5000e+02     -2.7205e-01      1.7592e+00     -7.9220e-01      5.4410e-01      2.5754e+00      2.3943e-02      8.1614e-01     -2.5891e-02
      2.5500e+02     -2.7123e-01      1.7588e+00     -7.8702e-01      5.4245e-01      2.5725e+00      2.6663e-02      8.1368e-01     -2.3164e-02
      2.6000e+02     -2.7052e-01      1.7584e+00     -7.8200e-01      5.4104e-01      2.5700e+00      2.9555e-02      8.1156e-01     -2.0696e-02
      2.6500e+02     -2.7001e-01      1.7579e+00     -7.7740e-01      5.4002e-01      2.5679e+00      3.2630e-02      8.1003e-01     -1.8287e-02
      2.7000e+02     -2.6946e-01      1.7574e+00     -7.7252e-01      5.3892e-01      2.5658e+00      3.5856e-02      8.0838e-01     -1.6608e-02
      2.7500e+02     -2.6860e-01      1.7573e+00     -7.6661e-01      5.3720e-01      2.5631e+00      3.9190e-02      8.0580e-01     -1.6423e-02
      2.8000e+02     -2.6763e-01      1.7574e+00     -7.6025e-01      5.3526e-01      2.5603e+00      4.2643e-02      8.0289e-01     -1.7220e-02
      2.8500e+02     -2.6667e-01      1.7575e+00     -7.5377e-01      5.3333e-01      2.5575e+00      4.6224e-02      7.9999e-01     -1.8884e-02
      2.9000e+02     -2.6567e-01      1.7577e+00     -7.4708e-01      5.3133e-01      2.5547e+00      4.9917e-02      7.9700e-01     -2.1023e-02
      2.9500e+02     -2.6463e-01      1.7579e+00     -7.4019e-01      5.2927e-01      2.5518e+00      5.3714e-02      7.9390e-01     -2.3185e-02
      3.0000e+02     -2.6357e-01      1.7583e+00     -7.3312e-01      5.2715e-01      2.5490e+00      5.7603e-02      7.9072e-01     -2.5498e-02
      3.0500e+02     -2.6248e-01      1.7586e+00     -7.2588e-01      5.2497e-01      2.5461e+00      6.1576e-02      7.8745e-01     -2.7942e-02
      3.1000e+02     -2.6137e-01      1.7591e+00     -7.1849e-01      5.2274e-01      2.5432e+00      6.5622e-02      7.8412e-01     -3.0504e-02
      3.1500e+02     -2.6024e-01      1.7596e+00     -7.1098e-01      5.2047e-01      2.5403e+00      6.9732e-02      7.8071e-01     -3.3166e-02
      3.2000e+02     -2.5908e-01      1.7602e+00     -7.0335e-01      5.1817e-01      2.5374e+00      7.3894e-02      7.7725e-01     -3.5920e-02
      3.2500e+02     -2.5791e-01      1.7607e+00     -6.9564e-01      5.1583e-01      2.5345e+00      7.8101e-02      7.7374e-01     -3.8759e-02
      3.3000e+02     -2.5673e-01      1.7614e+00     -6.8785e-01      5.1346e-01      2.5316e+00      8.2342e-02      7.7019e-01     -4.1671e-02
      3.3500e+02     -2.5553e-01      1.7621e+00     -6.8000e-01      5.1107e-01      2.5287e+00      8.6608e-02      7.6660e-01     -4.4643e-02
      3.4000e+02     -2.5433e-01      1.7628e+00     -6.7211e-01      5.0867e-01      2.5258e+00      9.0891e-02      7.6300e-01     -4.7670e-02
      3.4500e+02     -2.5312e-01      1.7635e+00     -6.6419e-01      5.0625e-01      2.5229e+00      9.5182e-02      7.5937e-01     -5.0744e-02
      3.5000e+02     -2.5191e-01      1.7642e+00     -6.5626e-01      5.0382e-01      2.5200e+00      9.9473e-02      7.5573e-01     -5.3856e-02
      3.5500e+02     -2.5070e-01      1.7650e+00     -6.4833e-01      5.0139e-01      2.5171e+00      1.0376e-01      7.5209e-01     -5.6994e-02
      3.6000e+02     -2.4948e-01      1.7658e+00     -6.4042e-01      4.9897e-01      2.5143e+00      1.0803e-01      7.4845e-01     -6.0154e-02
      3.6500e+02     -2.4827e-01      1.7666e+00     -6.3254e-01      4.9655e-01      2.5114e+00      1.1228e-01      7.4482e-01     -6.3328e-02
      3.7000e+02     -2.4707e-01      1.7674e+00     -6.2470e-01      4.9413e-01      2.5086e+00      1.1650e-01      7.4120e-01     -6.6510e-02
      3.7500e+02     -2.4587e-01      1.7682e+00     -6.1690e-01      4.9173e-01      2.5058e+00      1.2069e-01      7.3760e-01     -6.9693e-02
      3.8000e+02     -2.4467e-01      1.7691e+00     -6.0917e-01      4.8934e-01      2.5031e+00      1.2485e-01      7.3402e-01     -7.2871e-02
      3.8500e+02     -2.4349e-01      1.7699e+00     -6.0150e-01      4.8698e-01      2.5004e+00      1.2896e-01      7.3046e-01     -7.6038e-02
      3.9000e+02     -2.4231e-01      1.7708e+00     -5.9391e-01      4.8463e-01      2.4977e+00      1.3303e-01      7.2694e-01     -7.9188e-02
      3.9500e+02     -2.4115e-01      1.7716e+00     -5.8640e-01      4.8230e-01      2.4951e+00      1.3705e-01      7.2345e-01     -8.2262e-02
      4.0000e+02     -2.4000e-01      1.7724e+00     -5.7899e-01      4.8000e-01      2.4925e+00      1.4102e-01      7.2001e-01     -8.5424e-02
      4.0500e+02     -2.3888e-01      1.7733e+00     -5.7170e-01      4.7775e-01      2.4899e+00      1.4493e-01      7.1663e-01     -8.8939e-02
      4.1000e+02     -2.3777e-01      1.7741e+00     -5.6450e-01      4.7553e-01      2.4874e+00      1.4880e-01      7.1330e-01     -9.2423e-02
      4.1500e+02     -2.3666e-01      1.7749e+00     -5.5740e-01      4.7332e-01      2.4849e+00      1.5259e-01      7.0999e-01     -9.5506e-02
      4.2000e+02     -2.3557e-01      1.7757e+00     -5.5039e-01      4.7114e-01      2.4825e+00      1.5632e-01      7.0671e-01     -9.8451e-02
      4.2500e+02     -2.3450e-01      1.7766e+00     -5.4349e-01      4.6899e-01      2.4801e+00      1.6000e-01      7.0349e-01     -1.0141e-01
      4.3000e+02     -2.3344e-01      1.7774e+00     -5.3671e-01      4.6688e-01      2.4777e+00      1.6360e-01      7.0031e-01     -1.0434e-01
      4.3500e+02     -2.3240e-01      1.7782e+00     -5.3005e-01      4.6479e-01      2.4754e+00      1.6714e-01      6.9719e-01     -1.0722e-01
      4.4000e+02     -2.3137e-01      1.7790e+00     -5.2350e-01      4.6274e-01      2.4731e+00      1.7062e-01      6.9412e-01     -1.1006e-01
      4.4500e+02     -2.3037e-01      1.7797e+00     -5.1707e-01      4.6073e-01      2.4708e+00      1.7403e-01      6.9110e-01     -1.1286e-01
      4.5000e+02     -2.2938e-01      1.7805e+00     -5.1076e-01      4.5875e-01      2.4686e+00      1.7737e-01      6.8813e-01     -1.1561e-01
      4.5500e+02     -2.2841e-01      1.7813e+00     -5.0457e-01      4.5681e-01      2.4665e+00      1.8065e-01      6.8522e-01     -1.1832e-01
      4.6000e+02     -2.2745e-01      1.7820e+00     -4.9850e-01      4.5490e-01      2.4644e+00      1.8386e-01      6.8236e-01     -1.2098e-01
      4.6500e+02     -2.2652e-01      1.7828e+00     -4.9255e-01      4.5303e-01      2.4623e+00      1.8700e-01      6.7955e-01     -1.2360e-01
      4.7000e+02     -2.2560e-01      1.7835e+00     -4.8672e-01      4.5119e-01      2.4603e+00      1.9008e-01      6.7679e-01     -1.2617e-01
      4.7500e+02     -2.2470e-01      1.7842e+00     -4.8100e-01      4.4939e-01      2.4583e+00      1.9309e-01      6.7409e-01     -1.2869e-01
      4.8000e+02     -2.2382e-01      1.7849e+00     -4.7541e-01      4.4763e-01      2.4564e+00      1.9604e-01      6.7145e-01     -1.3117e-01
      4.8500e+02     -2.2295e-01      1.7856e+00     -4.6993e-01      4.4590e-01      2.4545e+00      1.9892e-01      6.6885e-01     -1.3360e-01
      4.9000e+02     -2.2210e-01      1.7863e+00     -4.6457e-01      4.4421e-01      2.4526e+00      2.0174e-01      6.6631e-01     -1.3598e-01
      4.9500e+02     -2.2127e-01      1.7869e+00     -4.5932e-01      4.4255e-01      2.4508e+00      2.0450e-01      6.6382e-01     -1.3831e-01
      5.0000e+02     -2.2046e-01      1.7876e+00     -4.5418e-01      4.4092e-01      2.4490e+00      2.0719e-01      6.6138e-01     -1.4060e-01
      5.0500e+02     -2.1966e-01      1.7882e+00     -4.4916e-01      4.3933e-01      2.4472e+00      2.0983e-01      6.5899e-01     -1.4285e-01
      5.1000e+02     -2.1888e-01      1.7889e+00     -4.4424e-01      4.3777e-01      2.4455e+00      2.1240e-01      6.5665e-01     -1.4504e-01
      5.1500e+02     -2.1812e-01      1.7895e+00     -4.3944e-01      4.3624e-01      2.4438e+00      2.1492e-01      6.5436e-01     -1.4720e-01
      5.2000e+02     -2.1737e-01      1.7901e+00     -4.3474e-01      4.3475e-01      2.4422e+00      2.1738e-01      6.5212e-01     -1.4930e-01
      5.2500e+02     -2.1664e-01      1.7907e+00     -4.3014e-01      4.3328e-01      2.4406e+00      2.1979e-01      6.4992e-01     -1.5137e-01
      5.3000e+02     -2.1592e-01      1.7913e+00     -4.2564e-01      4.3185e-01      2.4390e+00      2.2213e-01      6.4777e-01     -1.5339e-01
      5.3500e+02     -2.1522e-01      1.7918e+00     -4.2124e-01      4.3045e-01      2.4375e+00      2.2443e-01      6.4567e-01     -1.5537e-01
      5.4000e+02     -2.1454e-01      1.7924e+00     -4.1694e-01      4.2908e-01      2.4360e+00      2.2667e-01      6.4361e-01     -1.5731e-01
      5.4500e+02     -2.1387e-01      1.7929e+00     -4.1274e-01      4.2773e-01      2.4345e+00      2.2886e-01      6.4160e-01     -1.5921e-01
      5.5000e+02     -2.1321e-01      1.7935e+00     -4.0863e-01      4.2642e-01      2.4331e+00      2.3100e-01      6.3963e-01     -1.6106e-01
      5.5500e+02     -2.1257e-01      1.7940e+00     -4.0461e-01      4.2513e-01      2.4317e+00      2.3309e-01      6.3770e-01     -1.6288e-01
      5.6000e+02     -2.1194e-01      1.7945e+00     -4.0069e-01      4.2388e-01      2.4303e+00      2.3513e-01      6.3581e-01     -1.6466e-01
      5.6500e+02     -2.1132e-01      1.7950e+00     -3.9685e-01      4.2265e-01      2.4290e+00      2.3712e-01      6.3397e-01     -1.6640e-01
      5.7000e+02     -2.1072e-01      1.7955e+00     -3.9309e-01      4.2144e-01      2.4277e+00      2.3907e-01      6.3216e-01     -1.6810e-01
      5.7500e+02     -2.1013e-01      1.7960e+00     -3.8942e-01      4.2027e-01      2.4264e+00      2.4097e-01      6.3040e-01     -1.6976e-01
      5.8000e+02     -2.0956e-01      1.7965e+00     -3.8584e-01      4.1911e-01      2.4251e+00      2.4283e-01      6.2867e-01     -1.7139e-01
      5.8500e+02     -2.0899e-01      1.7969e+00     -3.8233e-01      4.1798e-01      2.4239e+00      2.4465e-01      6.2698e-01     -1.7299e-01
      5.9000e+02     -2.0844e-01      1.7974e+00     -3.7890e-01      4.1688e-01      2.4227e+00      2.4642e-01      6.2532e-01     -1.7455e-01
      5.9500e+02     -2.0790e-01      1.7978e+00     -3.7554e-01      4.1580e-01      2.4215e+00      2.4815e-01      6.2370e-01     -1.7608e-01
      6.0000e+02     -2.0737e-01      1.7983e+00     -3.7226e-01      4.1474e-01      2.4204e+00      2.4985e-01      6.2211e-01     -1.7757e-01
      6.0500e+02     -2.0685e-01      1.7987e+00     -3.6906e-01      4.1371e-01      2.4193e+00      2.5150e-01      6.2056e-01     -1.7902e-01
      6.1000e+02     -2.0635e-01      1.7991e+00     -3.6592e-01      4.1269e-01      2.4181e+00      2.5312e-01      6.1904e-01     -1.8042e-01
      6.1500e+02     -2.0585e-01      1.7995e+00     -3.6285e-01      4.1170e-01      2.4171e+00      2.5470e-01      6.1755e-01     -1.8177e-01
      6.2000e+02     -2.0536e-01      1.7999e+00     -3.5984e-01      4.1072e-01      2.4160e+00      2.5624e-01      6.1608e-01     -1.8309e-01
      6.2500e+02     -2.0488e-01      1.8003e+00     -3.5691e-01      4.0977e-01      2.4150e+00      2.5774e-01      6.1465e-01     -1.8437e-01
      6.3000e+02     -2.0441e-01      1.8007e+00     -3.5403e-01      4.0883e-01      2.4139e+00      2.5921e-01      6.1324e-01     -1.8562e-01
      6.3500e+02     -2.0395e-01      1.8011e+00     -3.5121e-01      4.0791e-01      2.4130e+00      2.6065e-01      6.1186e-01     -1.8683e-01
      6.4000e+02     -2.0350e-01      1.8015e+00     -3.4846e-01      4.0701e-01      2.4120e+00      2.6205e-01      6.1051e-01     -1.8800e-01
      6.4500e+02     -2.0306e-01      1.8018e+00     -3.4576e-01      4.0613e-01      2.4110e+00      2.6343e-01      6.0919e-01     -1.8914e-01
      6.5000e+02     -2.0263e-01      1.8022e+00     -3.4312e-01      4.0526e-01      2.4101e+00      2.6477e-01      6.0789e-01     -1.9024e-01
      6.5500e+02     -2.0220e-01      1.8025e+00     -3.4054e-01      4.0441e-01      2.4092e+00      2.6607e-01      6.0661e-01     -1.9131e-01
      6.6000e+02     -2.0179e-01      1.8029e+00     -3.3801e-01      4.0357e-01      2.4082e+00      2.6735e-01      6.0536e-01     -1.9235e-01
      6.6500e+02     -2.0138e-01      1.8032e+00     -3.3553e-01      4.0276e-01      2.4074e+00      2.6860e-01      6.0413e-01     -1.9336e-01
      6.7000e+02     -2.0098e-01      1.8036e+00     -3.3311e-01      4.0195e-01      2.4065e+00      2.6982e-01      6.0293e-01     -1.9432e-01
      6.7500e+02     -2.0058e-01      1.8039e+00     -3.3073e-01      4.0116e-01      2.4056e+00      2.7102e-01      6.0175e-01     -1.9523e-01
      6.8000e+02     -2.0019e-01      1.8042e+00     -3.2840e-01      4.0039e-01      2.4048e+00      2.7218e-01      6.0058e-01     -1.9608e-01
      6.8500e+02     -1.9981e-01      1.8045e+00     -3.2612e-01      3.9962e-01      2.4040e+00      2.7332e-01      5.9943e-01     -1.9689e-01
