# !T (MeV) d\mu_e/dL_e d\mu_\mu/dL_e d\mu_\tau/dL_e d\mu_{\nu_e}/dL_e d\mu_{\nu_\mu}/dL_e d\mu_{\nu_\tau}/dL_e d\mu_Q/dL_e d\mu_B/dL_e
     1.0000e+01      1.6309e+00     -1.1069e+00     -1.1087e+00      2.7395e+00      1.7628e-03      2.9112e-74      1.1087e+00     -5.7484e-01
     1.2000e+01      1.6341e+00     -1.0905e+00     -1.0985e+00      2.7326e+00      7.9415e-03      1.5729e-61      1.0985e+00     -5.5807e-01
     1.4000e+01      1.6383e+00     -1.0634e+00     -1.0857e+00      2.7240e+00      2.2314e-02      1.8536e-52      1.0857e+00     -5.3786e-01
     1.6000e+01      1.6439e+00     -1.0222e+00     -1.0687e+00      2.7126e+00      4.6503e-02      1.1347e-45      1.0687e+00     -5.1179e-01
     1.8000e+01      1.6509e+00     -9.6850e-01     -1.0477e+00      2.6986e+00      7.9232e-02      2.0976e-40      1.0477e+00     -4.8039e-01
     2.0000e+01      1.6587e+00     -9.0710e-01     -1.0244e+00      2.6830e+00      1.1728e-01      3.3625e-36      1.0244e+00     -4.4568e-01
     2.2000e+01      1.6667e+00     -8.4323e-01     -1.0003e+00      2.6669e+00      1.5704e-01      9.1372e-33      1.0003e+00     -4.0988e-01
     2.4000e+01      1.6745e+00     -7.8113e-01     -9.7678e-01      2.6513e+00      1.9565e-01      6.5742e-30      9.7678e-01     -3.7482e-01
     2.6000e+01      1.6818e+00     -7.2344e-01     -9.5478e-01      2.6366e+00      2.3134e-01      1.7042e-27      9.5478e-01     -3.4166e-01
     2.8000e+01      1.6885e+00     -6.7143e-01     -9.3470e-01      2.6232e+00      2.6328e-01      1.9825e-25      9.3470e-01     -3.1104e-01
     3.0000e+01      1.6945e+00     -6.2541e-01     -9.1668e-01      2.6112e+00      2.9128e-01      1.2153e-23      9.1668e-01     -2.8320e-01
     3.2000e+01      1.6998e+00     -5.8513e-01     -9.0067e-01      2.6005e+00      3.1553e-01      4.4281e-22      9.0067e-01     -2.5813e-01
     3.4000e+01      1.7045e+00     -5.5008e-01     -8.8650e-01      2.5910e+00      3.3642e-01      1.0514e-20      8.8650e-01     -2.3567e-01
     3.6000e+01      1.7087e+00     -5.1965e-01     -8.7401e-01      2.5827e+00      3.5436e-01      1.7475e-19      8.7401e-01     -2.1560e-01
     3.8000e+01      1.7124e+00     -4.9321e-01     -8.6299e-01      2.5754e+00      3.6978e-01      2.1510e-18      8.6299e-01     -1.9770e-01
     4.0000e+01      1.7156e+00     -4.7019e-01     -8.5326e-01      2.5689e+00      3.8306e-01      2.0516e-17      8.5326e-01     -1.8171e-01
     4.2000e+01      1.7185e+00     -4.5011e-01     -8.4465e-01      2.5631e+00      3.9453e-01      1.5728e-16      8.4465e-01     -1.6743e-01
     4.4000e+01      1.7210e+00     -4.3253e-01     -8.3701e-01      2.5580e+00      4.0448e-01      9.9848e-16      8.3701e-01     -1.5464e-01
     4.6000e+01      1.7233e+00     -4.1708e-01     -8.3022e-01      2.5535e+00      4.1314e-01      5.3811e-15      8.3022e-01     -1.4317e-01
     4.8000e+01      1.7253e+00     -4.0344e-01     -8.2415e-01      2.5495e+00      4.2071e-01      2.5131e-14      8.2415e-01     -1.3286e-01
     5.0000e+01      1.7271e+00     -3.9137e-01     -8.1873e-01      2.5458e+00      4.2736e-01      1.0348e-13      8.1873e-01     -1.2357e-01
     6.0000e+01      1.7338e+00     -3.4782e-01     -7.9867e-01      2.5325e+00      4.5085e-01      2.8912e-11      7.9867e-01     -8.8665e-02
     7.0000e+01      1.7380e+00     -3.2157e-01     -7.8616e-01      2.5241e+00      4.6459e-01      1.5619e-09      7.8616e-01     -6.6430e-02
     8.0000e+01      1.7407e+00     -3.0460e-01     -7.7788e-01      2.5186e+00      4.7328e-01      3.0406e-08      7.7788e-01     -5.1510e-02
     9.0000e+01      1.7426e+00     -2.9301e-01     -7.7212e-01      2.5148e+00      4.7910e-01      3.0138e-07      7.7212e-01     -4.1066e-02
     1.0000e+02      1.7440e+00     -2.8475e-01     -7.6794e-01      2.5120e+00      4.8319e-01      1.8619e-06      7.6794e-01     -3.3514e-02
     1.1000e+02      1.7451e+00     -2.7864e-01     -7.6477e-01      2.5099e+00      4.8614e-01      8.1652e-06      7.6478e-01     -2.7939e-02
     1.2000e+02      1.7459e+00     -2.7396e-01     -7.6222e-01      2.5082e+00      4.8829e-01      2.7720e-05      7.6225e-01     -2.3802e-02
     1.3000e+02      1.7466e+00     -2.7027e-01     -7.6003e-01      2.5067e+00      4.8983e-01      7.7334e-05      7.6011e-01     -2.0785e-02
     1.4000e+02      1.7473e+00     -2.6726e-01     -7.5796e-01      2.5054e+00      4.9088e-01      1.8501e-04      7.5815e-01     -1.8705e-02
     1.5000e+02      1.7479e+00     -2.6472e-01     -7.5582e-01      2.5041e+00      4.9149e-01      3.9151e-04      7.5621e-01     -1.7454e-02
     1.6000e+02      1.7486e+00     -2.6248e-01     -7.5343e-01      2.5028e+00      4.9170e-01      7.5004e-04      7.5418e-01     -1.6970e-02
     1.7000e+02      1.7493e+00     -2.6045e-01     -7.5064e-01      2.5013e+00      4.9151e-01      1.3240e-03      7.5196e-01     -1.7213e-02
     1.8000e+02      1.7502e+00     -2.5854e-01     -7.4730e-01      2.4997e+00      4.9094e-01      2.1831e-03      7.4948e-01     -1.8146e-02
     1.9000e+02      1.7511e+00     -2.5669e-01     -7.4329e-01      2.4978e+00      4.9000e-01      3.3985e-03      7.4669e-01     -1.9736e-02
     2.0000e+02      1.7522e+00     -2.5485e-01     -7.3851e-01      2.4957e+00      4.8870e-01      5.0381e-03      7.4355e-01     -2.1943e-02
     2.1000e+02      1.7533e+00     -2.5301e-01     -7.3289e-01      2.4934e+00      4.8705e-01      7.1612e-03      7.4006e-01     -2.4719e-02
     2.2000e+02      1.7546e+00     -2.5114e-01     -7.2639e-01      2.4908e+00      4.8507e-01      9.8151e-03      7.3621e-01     -2.8011e-02
     2.3000e+02      1.7560e+00     -2.4922e-01     -7.1899e-01      2.4880e+00      4.8280e-01      1.3032e-02      7.3203e-01     -3.1761e-02
     2.4000e+02      1.7575e+00     -2.4727e-01     -7.1070e-01      2.4850e+00      4.8026e-01      1.6828e-02      7.2753e-01     -3.5908e-02
     2.5000e+02      1.7591e+00     -2.4528e-01     -7.0155e-01      2.4818e+00      4.7747e-01      2.1203e-02      7.2275e-01     -4.0390e-02
     2.6000e+02      1.7608e+00     -2.4325e-01     -6.9159e-01      2.4785e+00      4.7448e-01      2.6138e-02      7.1773e-01     -4.5144e-02
     2.7000e+02      1.7625e+00     -2.4119e-01     -6.8090e-01      2.4750e+00      4.7132e-01      3.1604e-02      7.1250e-01     -5.0110e-02
     2.8000e+02      1.7643e+00     -2.3911e-01     -6.6956e-01      2.4714e+00      4.6801e-01      3.7556e-02      7.0712e-01     -5.5234e-02
     2.9000e+02      1.7661e+00     -2.3702e-01     -6.5767e-01      2.4677e+00      4.6460e-01      4.3943e-02      7.0162e-01     -6.0464e-02
     3.0000e+02      1.7680e+00     -2.3493e-01     -6.4533e-01      2.4640e+00      4.6111e-01      5.0705e-02      6.9603e-01     -6.5753e-02
     3.1000e+02      1.7699e+00     -2.3285e-01     -6.3263e-01      2.4603e+00      4.5756e-01      5.7780e-02      6.9041e-01     -7.1059e-02
     3.2000e+02      1.7717e+00     -2.3078e-01     -6.1967e-01      2.4565e+00      4.5400e-01      6.5103e-02      6.8478e-01     -7.6348e-02
     3.3000e+02      1.7736e+00     -2.2874e-01     -6.0656e-01      2.4528e+00      4.5043e-01      7.2611e-02      6.7917e-01     -8.1589e-02
     3.4000e+02      1.7755e+00     -2.2674e-01     -5.9337e-01      2.4491e+00      4.4688e-01      8.0243e-02      6.7361e-01     -8.6756e-02
     3.5000e+02      1.7773e+00     -2.2477e-01     -5.8019e-01      2.4454e+00      4.4336e-01      8.7943e-02      6.6813e-01     -9.1827e-02
     3.6000e+02      1.7791e+00     -2.2284e-01     -5.6709e-01      2.4418e+00      4.3990e-01      9.5658e-02      6.6275e-01     -9.6786e-02
     3.7000e+02      1.7808e+00     -2.2097e-01     -5.5413e-01      2.4383e+00      4.3650e-01      1.0334e-01      6.5747e-01     -1.0162e-01
     3.8000e+02      1.7826e+00     -2.1914e-01     -5.4136e-01      2.4349e+00      4.3317e-01      1.1095e-01      6.5232e-01     -1.0631e-01
     3.9000e+02      1.7842e+00     -2.1737e-01     -5.2884e-01      2.4315e+00      4.2993e-01      1.1845e-01      6.4730e-01     -1.1087e-01
     4.0000e+02      1.7859e+00     -2.1565e-01     -5.1660e-01      2.4283e+00      4.2676e-01      1.2582e-01      6.4242e-01     -1.1527e-01
     4.1000e+02      1.7874e+00     -2.1399e-01     -5.0466e-01      2.4251e+00      4.2369e-01      1.3302e-01      6.3768e-01     -1.1952e-01
     4.2000e+02      1.7890e+00     -2.1239e-01     -4.9306e-01      2.4221e+00      4.2071e-01      1.4004e-01      6.3310e-01     -1.2361e-01
     4.3000e+02      1.7904e+00     -2.1084e-01     -4.8180e-01      2.4191e+00      4.1783e-01      1.4686e-01      6.2867e-01     -1.2755e-01
     4.4000e+02      1.7919e+00     -2.0934e-01     -4.7091e-01      2.4163e+00      4.1504e-01      1.5348e-01      6.2438e-01     -1.3133e-01
     4.5000e+02      1.7933e+00     -2.0791e-01     -4.6038e-01      2.4135e+00      4.1234e-01      1.5987e-01      6.2025e-01     -1.3496e-01
     4.6000e+02      1.7946e+00     -2.0652e-01     -4.5021e-01      2.4108e+00      4.0974e-01      1.6605e-01      6.1626e-01     -1.3844e-01
     4.7000e+02      1.7959e+00     -2.0519e-01     -4.4042e-01      2.4083e+00      4.0723e-01      1.7200e-01      6.1242e-01     -1.4176e-01
     4.8000e+02      1.7971e+00     -2.0390e-01     -4.3099e-01      2.4058e+00      4.0481e-01      1.7772e-01      6.0872e-01     -1.4494e-01
     4.9000e+02      1.7983e+00     -2.0267e-01     -4.2193e-01      2.4034e+00      4.0248e-01      1.8322e-01      6.0515e-01     -1.4798e-01
     5.0000e+02      1.7994e+00     -2.0148e-01     -4.1321e-01      2.4011e+00      4.0023e-01      1.8850e-01      6.0171e-01     -1.5088e-01
     5.1000e+02      1.8005e+00     -2.0033e-01     -4.0484e-01      2.3989e+00      3.9807e-01      1.9356e-01      5.9840e-01     -1.5364e-01
     5.2000e+02      1.8016e+00     -1.9923e-01     -3.9680e-01      2.3968e+00      3.9598e-01      1.9841e-01      5.9521e-01     -1.5627e-01
     5.3000e+02      1.8026e+00     -1.9818e-01     -3.8908e-01      2.3948e+00      3.9397e-01      2.0306e-01      5.9214e-01     -1.5877e-01
     5.4000e+02      1.8036e+00     -1.9716e-01     -3.8168e-01      2.3928e+00      3.9203e-01      2.0750e-01      5.8918e-01     -1.6114e-01
     5.5000e+02      1.8046e+00     -1.9617e-01     -3.7458e-01      2.3909e+00      3.9015e-01      2.1175e-01      5.8633e-01     -1.6340e-01
     5.6000e+02      1.8055e+00     -1.9523e-01     -3.6777e-01      2.3891e+00      3.8835e-01      2.1581e-01      5.8358e-01     -1.6554e-01
     5.7000e+02      1.8064e+00     -1.9432e-01     -3.6123e-01      2.3873e+00      3.8661e-01      2.1969e-01      5.8093e-01     -1.6756e-01
     5.8000e+02      1.8072e+00     -1.9344e-01     -3.5496e-01      2.3856e+00      3.8493e-01      2.2340e-01      5.7836e-01     -1.6947e-01
     5.9000e+02      1.8080e+00     -1.9259e-01     -3.4895e-01      2.3839e+00      3.8330e-01      2.2694e-01      5.7589e-01     -1.7128e-01
     6.0000e+02      1.8088e+00     -1.9177e-01     -3.4318e-01      2.3823e+00      3.8174e-01      2.3033e-01      5.7350e-01     -1.7299e-01
     6.1000e+02      1.8096e+00     -1.9098e-01     -3.3764e-01      2.3808e+00      3.8022e-01      2.3356e-01      5.7120e-01     -1.7459e-01
     6.2000e+02      1.8103e+00     -1.9021e-01     -3.3232e-01      2.3793e+00      3.7875e-01      2.3664e-01      5.6896e-01     -1.7610e-01
     6.3000e+02      1.8111e+00     -1.8947e-01     -3.2722e-01      2.3779e+00      3.7733e-01      2.3958e-01      5.6680e-01     -1.7752e-01
     6.4000e+02      1.8118e+00     -1.8876e-01     -3.2232e-01      2.3765e+00      3.7595e-01      2.4239e-01      5.6471e-01     -1.7884e-01
     6.5000e+02      1.8124e+00     -1.8806e-01     -3.1761e-01      2.3751e+00      3.7462e-01      2.4508e-01      5.6268e-01     -1.8009e-01
     6.6000e+02      1.8131e+00     -1.8739e-01     -3.1308e-01      2.3738e+00      3.7333e-01      2.4764e-01      5.6072e-01     -1.8124e-01
     6.7000e+02      1.8137e+00     -1.8674e-01     -3.0873e-01      2.3725e+00      3.7207e-01      2.5008e-01      5.5881e-01     -1.8232e-01
     6.8000e+02      1.8143e+00     -1.8611e-01     -3.0455e-01      2.3713e+00      3.7085e-01      2.5241e-01      5.5696e-01     -1.8332e-01
     6.9000e+02      1.8149e+00     -1.8549e-01     -3.0052e-01      2.3701e+00      3.6967e-01      2.5464e-01      5.5516e-01     -1.8424e-01
     7.0000e+02      1.8155e+00     -1.8490e-01     -2.9665e-01      2.3689e+00      3.6852e-01      2.5677e-01      5.5342e-01     -1.8510e-01
     7.1000e+02      1.8161e+00     -1.8432e-01     -2.9292e-01      2.3678e+00      3.6740e-01      2.5880e-01      5.5172e-01     -1.8588e-01
     7.2000e+02      1.8166e+00     -1.8375e-01     -2.8933e-01      2.3667e+00      3.6631e-01      2.6073e-01      5.5006e-01     -1.8660e-01
     7.3000e+02      1.8172e+00     -1.8321e-01     -2.8587e-01      2.3656e+00      3.6525e-01      2.6258e-01      5.4845e-01     -1.8725e-01
     7.4000e+02      1.8177e+00     -1.8267e-01     -2.8253e-01      2.3646e+00      3.6421e-01      2.6435e-01      5.4688e-01     -1.8784e-01
     7.5000e+02      1.8182e+00     -1.8215e-01     -2.7932e-01      2.3636e+00      3.6320e-01      2.6603e-01      5.4535e-01     -1.8837e-01
     7.6000e+02      1.8187e+00     -1.8164e-01     -2.7622e-01      2.3626e+00      3.6222e-01      2.6764e-01      5.4386e-01     -1.8885e-01
     7.7000e+02      1.8192e+00     -1.8115e-01     -2.7322e-01      2.3616e+00      3.6126e-01      2.6918e-01      5.4240e-01     -1.8926e-01
     7.8000e+02      1.8197e+00     -1.8066e-01     -2.7034e-01      2.3607e+00      3.6032e-01      2.7065e-01      5.4098e-01     -1.8963e-01
     7.9000e+02      1.8201e+00     -1.8019e-01     -2.6754e-01      2.3597e+00      3.5940e-01      2.7205e-01      5.3959e-01     -1.8995e-01
     8.0000e+02      1.8206e+00     -1.7973e-01     -2.6485e-01      2.3588e+00      3.5851e-01      2.7339e-01      5.3823e-01     -1.9021e-01
     8.1000e+02      1.8210e+00     -1.7928e-01     -2.6224e-01      2.3579e+00      3.5763e-01      2.7466e-01      5.3691e-01     -1.9043e-01
     8.2000e+02      1.8215e+00     -1.7884e-01     -2.5972e-01      2.3571e+00      3.5677e-01      2.7588e-01      5.3561e-01     -1.9061e-01
     8.3000e+02      1.8219e+00     -1.7840e-01     -2.5729e-01      2.3562e+00      3.5593e-01      2.7705e-01      5.3434e-01     -1.9074e-01
     8.4000e+02      1.8223e+00     -1.7798e-01     -2.5493e-01      2.3554e+00      3.5511e-01      2.7816e-01      5.3309e-01     -1.9083e-01
     8.5000e+02      1.8227e+00     -1.7757e-01     -2.5265e-01      2.3546e+00      3.5430e-01      2.7922e-01      5.3187e-01     -1.9089e-01
     8.6000e+02      1.8231e+00     -1.7716e-01     -2.5044e-01      2.3538e+00      3.5351e-01      2.8024e-01      5.3067e-01     -1.9090e-01
     8.7000e+02      1.8235e+00     -1.7676e-01     -2.4830e-01      2.3530e+00      3.5274e-01      2.8120e-01      5.2950e-01     -1.9088e-01
     8.8000e+02      1.8239e+00     -1.7637e-01     -2.4622e-01      2.3522e+00      3.5198e-01      2.8213e-01      5.2835e-01     -1.9082e-01
     8.9000e+02      1.8243e+00     -1.7599e-01     -2.4421e-01      2.3515e+00      3.5123e-01      2.8301e-01      5.2722e-01     -1.9074e-01
     9.0000e+02      1.8246e+00     -1.7562e-01     -2.4226e-01      2.3507e+00      3.5050e-01      2.8385e-01      5.2611e-01     -1.9062e-01
     9.1000e+02      1.8250e+00     -1.7525e-01     -2.4037e-01      2.3500e+00      3.4978e-01      2.8466e-01      5.2503e-01     -1.9047e-01
     9.2000e+02      1.8253e+00     -1.7489e-01     -2.3854e-01      2.3493e+00      3.4907e-01      2.8542e-01      5.2396e-01     -1.9029e-01
     9.3000e+02      1.8257e+00     -1.7453e-01     -2.3675e-01      2.3486e+00      3.4838e-01      2.8616e-01      5.2291e-01     -1.9008e-01
     9.4000e+02      1.8260e+00     -1.7418e-01     -2.3503e-01      2.3479e+00      3.4770e-01      2.8686e-01      5.2188e-01     -1.8985e-01
     9.5000e+02      1.8264e+00     -1.7384e-01     -2.3335e-01      2.3472e+00      3.4703e-01      2.8752e-01      5.2087e-01     -1.8960e-01
     9.6000e+02      1.8267e+00     -1.7350e-01     -2.3171e-01      2.3466e+00      3.4637e-01      2.8816e-01      5.1987e-01     -1.8932e-01
     9.7000e+02      1.8270e+00     -1.7317e-01     -2.3013e-01      2.3459e+00      3.4572e-01      2.8877e-01      5.1889e-01     -1.8902e-01
     9.8000e+02      1.8274e+00     -1.7285e-01     -2.2859e-01      2.3453e+00      3.4508e-01      2.8934e-01      5.1793e-01     -1.8870e-01
     9.9000e+02      1.8277e+00     -1.7253e-01     -2.2709e-01      2.3447e+00      3.4446e-01      2.8990e-01      5.1698e-01     -1.8836e-01
     1.0000e+03      1.8280e+00     -1.7221e-01     -2.2563e-01      2.3440e+00      3.4384e-01      2.9042e-01      5.1605e-01     -1.8800e-01
     1.0100e+03      1.8283e+00     -1.7190e-01     -2.2421e-01      2.3434e+00      3.4323e-01      2.9092e-01      5.1513e-01     -1.8762e-01
     1.0200e+03      1.8286e+00     -1.7160e-01     -2.2283e-01      2.3428e+00      3.4263e-01      2.9140e-01      5.1423e-01     -1.8723e-01
     1.0300e+03      1.8289e+00     -1.7130e-01     -2.2148e-01      2.3422e+00      3.4204e-01      2.9186e-01      5.1334e-01     -1.8682e-01
     1.0400e+03      1.8292e+00     -1.7100e-01     -2.2017e-01      2.3416e+00      3.4146e-01      2.9229e-01      5.1247e-01     -1.8640e-01
     1.0500e+03      1.8295e+00     -1.7071e-01     -2.1890e-01      2.3411e+00      3.4089e-01      2.9271e-01      5.1160e-01     -1.8596e-01
     1.0600e+03      1.8297e+00     -1.7042e-01     -2.1765e-01      2.3405e+00      3.4033e-01      2.9310e-01      5.1075e-01     -1.8551e-01
     1.0700e+03      1.8300e+00     -1.7014e-01     -2.1644e-01      2.3399e+00      3.3978e-01      2.9348e-01      5.0992e-01     -1.8504e-01
     1.0800e+03      1.8303e+00     -1.6986e-01     -2.1526e-01      2.3394e+00      3.3923e-01      2.9383e-01      5.0909e-01     -1.8457e-01
     1.0900e+03      1.8306e+00     -1.6959e-01     -2.1411e-01      2.3389e+00      3.3869e-01      2.9417e-01      5.0828e-01     -1.8408e-01
     1.1000e+03      1.8308e+00     -1.6932e-01     -2.1299e-01      2.3383e+00      3.3816e-01      2.9450e-01      5.0748e-01     -1.8358e-01
     1.1100e+03      1.8311e+00     -1.6905e-01     -2.1189e-01      2.3378e+00      3.3764e-01      2.9480e-01      5.0670e-01     -1.8308e-01
     1.1200e+03      1.8314e+00     -1.6879e-01     -2.1082e-01      2.3373e+00      3.3713e-01      2.9509e-01      5.0592e-01     -1.8256e-01
     1.1300e+03      1.8316e+00     -1.6853e-01     -2.0978e-01      2.3368e+00      3.3662e-01      2.9537e-01      5.0515e-01     -1.8204e-01
     1.1400e+03      1.8319e+00     -1.6828e-01     -2.0876e-01      2.3363e+00      3.3612e-01      2.9563e-01      5.0440e-01     -1.8151e-01
     1.1500e+03      1.8321e+00     -1.6803e-01     -2.0777e-01      2.3358e+00      3.3563e-01      2.9588e-01      5.0365e-01     -1.8097e-01
     1.1600e+03      1.8324e+00     -1.6778e-01     -2.0680e-01      2.3353e+00      3.3514e-01      2.9612e-01      5.0292e-01     -1.8043e-01
     1.1700e+03      1.8326e+00     -1.6754e-01     -2.0585e-01      2.3348e+00      3.3466e-01      2.9635e-01      5.0220e-01     -1.7988e-01
     1.1800e+03      1.8328e+00     -1.6730e-01     -2.0492e-01      2.3343e+00      3.3419e-01      2.9656e-01      5.0148e-01     -1.7933e-01
     1.1900e+03      1.8331e+00     -1.6706e-01     -2.0402e-01      2.3339e+00      3.3372e-01      2.9676e-01      5.0078e-01     -1.7877e-01
     1.2000e+03      1.8333e+00     -1.6683e-01     -2.0313e-01      2.3334e+00      3.3326e-01      2.9695e-01      5.0009e-01     -1.7821e-01
     1.2100e+03      1.8335e+00     -1.6660e-01     -2.0227e-01      2.3329e+00      3.3281e-01      2.9713e-01      4.9940e-01     -1.7764e-01
