# !T (MeV) d\mu_e/dL_\mu d\mu_\mu/dL_\mu d\mu_\tau/dL_\mu d\mu_{\nu_e}/dL_\mu d\mu_{\nu_\mu}/dL_\mu d\mu_{\nu_\tau}/dL_\mu d\mu_Q/dL_\mu d\mu_B/dL_\mu
     1.0000e+01     -8.8173e-04      5.9878e+00     -2.6445e-03      1.7628e-03      5.9905e+00      6.9441e-77      2.6445e-03     -1.3712e-03
     1.2000e+01     -3.9718e-03      5.9448e+00     -1.1913e-02      7.9415e-03      5.9567e+00      1.7059e-63      1.1913e-02     -6.0526e-03
     1.4000e+01     -1.1159e-02      5.8439e+00     -3.3473e-02      2.2314e-02      5.8774e+00      5.7149e-54      3.3473e-02     -1.6583e-02
     1.6000e+01     -2.3255e-02      5.6722e+00     -6.9757e-02      4.6503e-02      5.7419e+00      7.4070e-47      6.9757e-02     -3.3407e-02
     1.8000e+01     -3.9621e-02      5.4364e+00     -1.1885e-01      7.9232e-02      5.5553e+00      2.3795e-41      1.1885e-01     -5.4495e-02
     2.0000e+01     -5.8644e-02      5.1573e+00     -1.7592e-01      1.1728e-01      5.3332e+00      5.7746e-37      1.7592e-01     -7.6539e-02
     2.2000e+01     -7.8526e-02      4.8594e+00     -2.3556e-01      1.5704e-01      5.0950e+00      2.1518e-33      2.3556e-01     -9.6528e-02
     2.4000e+01     -9.7834e-02      4.5635e+00     -2.9349e-01      1.9565e-01      4.8570e+00      1.9753e-30      2.9349e-01     -1.1262e-01
     2.6000e+01     -1.1568e-01      4.2833e+00     -3.4702e-01      2.3134e-01      4.6303e+00      6.1941e-28      3.4702e-01     -1.2418e-01
     2.8000e+01     -1.3165e-01      4.0263e+00     -3.9492e-01      2.6328e-01      4.4212e+00      8.3761e-26      3.9492e-01     -1.3142e-01
     3.0000e+01     -1.4564e-01      3.7954e+00     -4.3692e-01      2.9128e-01      4.2323e+00      5.7924e-24      4.3692e-01     -1.3498e-01
     3.2000e+01     -1.5777e-01      3.5905e+00     -4.7330e-01      3.1553e-01      4.0638e+00      2.3270e-22      4.7330e-01     -1.3565e-01
     3.4000e+01     -1.6822e-01      3.4099e+00     -5.0463e-01      3.3642e-01      3.9146e+00      5.9851e-21      5.0463e-01     -1.3415e-01
     3.6000e+01     -1.7719e-01      3.2513e+00     -5.3155e-01      3.5436e-01      3.7828e+00      1.0628e-19      5.3155e-01     -1.3112e-01
     3.8000e+01     -1.8490e-01      3.1120e+00     -5.5468e-01      3.6978e-01      3.6667e+00      1.3826e-18      5.5468e-01     -1.2707e-01
     4.0000e+01     -1.9154e-01      2.9897e+00     -5.7460e-01      3.8306e-01      3.5643e+00      1.3816e-17      5.7460e-01     -1.2237e-01
     4.2000e+01     -1.9727e-01      2.8820e+00     -5.9181e-01      3.9453e-01      3.4738e+00      1.1020e-16      5.9181e-01     -1.1731e-01
     4.4000e+01     -2.0224e-01      2.7870e+00     -6.0672e-01      4.0448e-01      3.3937e+00      7.2377e-16      6.0672e-01     -1.1210e-01
     4.6000e+01     -2.0657e-01      2.7029e+00     -6.1971e-01      4.1314e-01      3.3226e+00      4.0167e-15      6.1971e-01     -1.0687e-01
     4.8000e+01     -2.1036e-01      2.6282e+00     -6.3107e-01      4.2071e-01      3.2593e+00      1.9243e-14      6.3107e-01     -1.0174e-01
     5.0000e+01     -2.1368e-01      2.5617e+00     -6.4104e-01      4.2736e-01      3.2027e+00      8.1024e-14      6.4104e-01     -9.6753e-02
     6.0000e+01     -2.2543e-01      2.3185e+00     -6.7628e-01      4.5085e-01      2.9947e+00      2.4481e-11      6.7628e-01     -7.5078e-02
     7.0000e+01     -2.3230e-01      2.1692e+00     -6.9689e-01      4.6459e-01      2.8660e+00      1.3846e-09      6.9689e-01     -5.8887e-02
     8.0000e+01     -2.3664e-01      2.0715e+00     -7.0992e-01      4.7328e-01      2.7814e+00      2.7749e-08      7.0992e-01     -4.7010e-02
     9.0000e+01     -2.3955e-01      2.0042e+00     -7.1866e-01      4.7910e-01      2.7229e+00      2.8051e-07      7.1866e-01     -3.8223e-02
     1.0000e+02     -2.4160e-01      1.9560e+00     -7.2478e-01      4.8319e-01      2.6808e+00      1.7572e-06      7.2478e-01     -3.1631e-02
     1.1000e+02     -2.4307e-01      1.9204e+00     -7.2920e-01      4.8614e-01      2.6496e+00      7.7855e-06      7.2921e-01     -2.6640e-02
     1.2000e+02     -2.4414e-01      1.8932e+00     -7.3240e-01      4.8829e-01      2.6257e+00      2.6635e-05      7.3243e-01     -2.2871e-02
     1.3000e+02     -2.4492e-01      1.8722e+00     -7.3468e-01      4.8983e-01      2.6069e+00      7.4754e-05      7.3475e-01     -2.0092e-02
     1.4000e+02     -2.4544e-01      1.8556e+00     -7.3615e-01      4.9088e-01      2.5919e+00      1.7968e-04      7.3632e-01     -1.8166e-02
     1.5000e+02     -2.4575e-01      1.8423e+00     -7.3686e-01      4.9149e-01      2.5795e+00      3.8169e-04      7.3724e-01     -1.7016e-02
     1.6000e+02     -2.4585e-01      1.8315e+00     -7.3681e-01      4.9170e-01      2.5691e+00      7.3350e-04      7.3755e-01     -1.6596e-02
     1.7000e+02     -2.4576e-01      1.8228e+00     -7.3597e-01      4.9151e-01      2.5601e+00      1.2981e-03      7.3727e-01     -1.6876e-02
     1.8000e+02     -2.4547e-01      1.8157e+00     -7.3427e-01      4.9094e-01      2.5521e+00      2.1450e-03      7.3641e-01     -1.7830e-02
     1.9000e+02     -2.4500e-01      1.8099e+00     -7.3165e-01      4.9000e-01      2.5449e+00      3.3453e-03      7.3500e-01     -1.9427e-02
     2.0000e+02     -2.4435e-01      1.8053e+00     -7.2808e-01      4.8870e-01      2.5383e+00      4.9669e-03      7.3304e-01     -2.1633e-02
     2.1000e+02     -2.4352e-01      1.8015e+00     -7.2350e-01      4.8705e-01      2.5321e+00      7.0694e-03      7.3057e-01     -2.4402e-02
     2.2000e+02     -2.4254e-01      1.7985e+00     -7.1791e-01      4.8507e-01      2.5261e+00      9.7005e-03      7.2761e-01     -2.7684e-02
     2.3000e+02     -2.4140e-01      1.7962e+00     -7.1131e-01      4.8280e-01      2.5204e+00      1.2893e-02      7.2420e-01     -3.1422e-02
     2.4000e+02     -2.4013e-01      1.7944e+00     -7.0372e-01      4.8026e-01      2.5148e+00      1.6663e-02      7.2039e-01     -3.5556e-02
     2.5000e+02     -2.3874e-01      1.7931e+00     -6.9520e-01      4.7747e-01      2.5093e+00      2.1011e-02      7.1621e-01     -4.0024e-02
     2.6000e+02     -2.3724e-01      1.7923e+00     -6.8580e-01      4.7448e-01      2.5040e+00      2.5920e-02      7.1172e-01     -4.4766e-02
     2.7000e+02     -2.3566e-01      1.7917e+00     -6.7562e-01      4.7132e-01      2.4987e+00      3.1359e-02      7.0698e-01     -4.9722e-02
     2.8000e+02     -2.3401e-01      1.7915e+00     -6.6473e-01      4.6801e-01      2.4935e+00      3.7285e-02      7.0202e-01     -5.4836e-02
     2.9000e+02     -2.3230e-01      1.7915e+00     -6.5325e-01      4.6460e-01      2.4884e+00      4.3648e-02      6.9690e-01     -6.0057e-02
     3.0000e+02     -2.3055e-01      1.7917e+00     -6.4127e-01      4.6111e-01      2.4833e+00      5.0387e-02      6.9166e-01     -6.5339e-02
     3.1000e+02     -2.2878e-01      1.7921e+00     -6.2890e-01      4.5756e-01      2.4784e+00      5.7440e-02      6.8634e-01     -7.0641e-02
     3.2000e+02     -2.2700e-01      1.7926e+00     -6.1625e-01      4.5400e-01      2.4736e+00      6.4743e-02      6.8099e-01     -7.5927e-02
     3.3000e+02     -2.2521e-01      1.7932e+00     -6.0341e-01      4.5043e-01      2.4689e+00      7.2234e-02      6.7564e-01     -8.1165e-02
     3.4000e+02     -2.2344e-01      1.7939e+00     -5.9047e-01      4.4688e-01      2.4643e+00      7.9850e-02      6.7032e-01     -8.6331e-02
     3.5000e+02     -2.2168e-01      1.7947e+00     -5.7751e-01      4.4336e-01      2.4598e+00      8.7537e-02      6.6505e-01     -9.1403e-02
     3.6000e+02     -2.1995e-01      1.7956e+00     -5.6461e-01      4.3990e-01      2.4554e+00      9.5240e-02      6.5985e-01     -9.6363e-02
     3.7000e+02     -2.1825e-01      1.7965e+00     -5.5184e-01      4.3650e-01      2.4512e+00      1.0291e-01      6.5475e-01     -1.0120e-01
     3.8000e+02     -2.1659e-01      1.7974e+00     -5.3924e-01      4.3317e-01      2.4471e+00      1.1052e-01      6.4976e-01     -1.0590e-01
     3.9000e+02     -2.1496e-01      1.7983e+00     -5.2687e-01      4.2993e-01      2.4432e+00      1.1801e-01      6.4489e-01     -1.1045e-01
     4.0000e+02     -2.1338e-01      1.7993e+00     -5.1477e-01      4.2676e-01      2.4394e+00      1.2537e-01      6.4015e-01     -1.1486e-01
     4.1000e+02     -2.1185e-01      1.8002e+00     -5.0296e-01      4.2369e-01      2.4357e+00      1.3257e-01      6.3554e-01     -1.1912e-01
     4.2000e+02     -2.1036e-01      1.8011e+00     -4.9148e-01      4.2071e-01      2.4322e+00      1.3959e-01      6.3107e-01     -1.2321e-01
     4.3000e+02     -2.0891e-01      1.8020e+00     -4.8033e-01      4.1783e-01      2.4288e+00      1.4642e-01      6.2674e-01     -1.2716e-01
     4.4000e+02     -2.0752e-01      1.8030e+00     -4.6953e-01      4.1504e-01      2.4255e+00      1.5303e-01      6.2256e-01     -1.3095e-01
     4.5000e+02     -2.0617e-01      1.8039e+00     -4.5909e-01      4.1234e-01      2.4224e+00      1.5943e-01      6.1852e-01     -1.3458e-01
     4.6000e+02     -2.0487e-01      1.8047e+00     -4.4901e-01      4.0974e-01      2.4193e+00      1.6560e-01      6.1462e-01     -1.3807e-01
     4.7000e+02     -2.0362e-01      1.8056e+00     -4.3929e-01      4.0723e-01      2.4164e+00      1.7156e-01      6.1085e-01     -1.4140e-01
     4.8000e+02     -2.0241e-01      1.8064e+00     -4.2994e-01      4.0481e-01      2.4136e+00      1.7729e-01      6.0722e-01     -1.4459e-01
     4.9000e+02     -2.0124e-01      1.8072e+00     -4.2093e-01      4.0248e-01      2.4110e+00      1.8279e-01      6.0372e-01     -1.4763e-01
     5.0000e+02     -2.0012e-01      1.8080e+00     -4.1227e-01      4.0023e-01      2.4084e+00      1.8807e-01      6.0035e-01     -1.5054e-01
     5.1000e+02     -1.9903e-01      1.8088e+00     -4.0396e-01      3.9807e-01      2.4059e+00      1.9314e-01      5.9710e-01     -1.5331e-01
     5.2000e+02     -1.9799e-01      1.8096e+00     -3.9597e-01      3.9598e-01      2.4035e+00      1.9800e-01      5.9397e-01     -1.5594e-01
     5.3000e+02     -1.9698e-01      1.8103e+00     -3.8830e-01      3.9397e-01      2.4012e+00      2.0265e-01      5.9095e-01     -1.5845e-01
     5.4000e+02     -1.9601e-01      1.8110e+00     -3.8094e-01      3.9203e-01      2.3990e+00      2.0710e-01      5.8804e-01     -1.6083e-01
     5.5000e+02     -1.9508e-01      1.8117e+00     -3.7388e-01      3.9015e-01      2.3969e+00      2.1135e-01      5.8523e-01     -1.6309e-01
     5.6000e+02     -1.9418e-01      1.8123e+00     -3.6710e-01      3.8835e-01      2.3949e+00      2.1542e-01      5.8253e-01     -1.6524e-01
     5.7000e+02     -1.9330e-01      1.8130e+00     -3.6060e-01      3.8661e-01      2.3929e+00      2.1931e-01      5.7991e-01     -1.6727e-01
     5.8000e+02     -1.9246e-01      1.8136e+00     -3.5437e-01      3.8493e-01      2.3910e+00      2.2303e-01      5.7739e-01     -1.6919e-01
     5.9000e+02     -1.9165e-01      1.8142e+00     -3.4838e-01      3.8330e-01      2.3892e+00      2.2657e-01      5.7496e-01     -1.7100e-01
     6.0000e+02     -1.9087e-01      1.8148e+00     -3.4264e-01      3.8174e-01      2.3874e+00      2.2996e-01      5.7260e-01     -1.7271e-01
     6.1000e+02     -1.9011e-01      1.8154e+00     -3.3713e-01      3.8022e-01      2.3857e+00      2.3320e-01      5.7033e-01     -1.7433e-01
     6.2000e+02     -1.8938e-01      1.8160e+00     -3.3183e-01      3.7875e-01      2.3841e+00      2.3629e-01      5.6813e-01     -1.7584e-01
     6.3000e+02     -1.8866e-01      1.8165e+00     -3.2675e-01      3.7733e-01      2.3825e+00      2.3924e-01      5.6599e-01     -1.7726e-01
     6.4000e+02     -1.8798e-01      1.8170e+00     -3.2187e-01      3.7595e-01      2.3810e+00      2.4206e-01      5.6393e-01     -1.7860e-01
     6.5000e+02     -1.8731e-01      1.8175e+00     -3.1718e-01      3.7462e-01      2.3795e+00      2.4475e-01      5.6193e-01     -1.7984e-01
     6.6000e+02     -1.8666e-01      1.8180e+00     -3.1268e-01      3.7333e-01      2.3780e+00      2.4731e-01      5.5999e-01     -1.8101e-01
     6.7000e+02     -1.8604e-01      1.8185e+00     -3.0834e-01      3.7207e-01      2.3766e+00      2.4976e-01      5.5811e-01     -1.8209e-01
     6.8000e+02     -1.8543e-01      1.8190e+00     -3.0417e-01      3.7085e-01      2.3753e+00      2.5210e-01      5.5628e-01     -1.8309e-01
     6.9000e+02     -1.8483e-01      1.8195e+00     -3.0017e-01      3.6967e-01      2.3740e+00      2.5434e-01      5.5450e-01     -1.8403e-01
     7.0000e+02     -1.8426e-01      1.8199e+00     -2.9631e-01      3.6852e-01      2.3727e+00      2.5647e-01      5.5278e-01     -1.8488e-01
     7.1000e+02     -1.8370e-01      1.8204e+00     -2.9259e-01      3.6740e-01      2.3715e+00      2.5850e-01      5.5110e-01     -1.8567e-01
     7.2000e+02     -1.8315e-01      1.8208e+00     -2.8901e-01      3.6631e-01      2.3703e+00      2.6045e-01      5.4946e-01     -1.8639e-01
     7.3000e+02     -1.8262e-01      1.8212e+00     -2.8557e-01      3.6525e-01      2.3691e+00      2.6230e-01      5.4787e-01     -1.8705e-01
     7.4000e+02     -1.8211e-01      1.8217e+00     -2.8224e-01      3.6421e-01      2.3680e+00      2.6407e-01      5.4632e-01     -1.8765e-01
     7.5000e+02     -1.8160e-01      1.8221e+00     -2.7904e-01      3.6320e-01      2.3669e+00      2.6577e-01      5.4480e-01     -1.8818e-01
     7.6000e+02     -1.8111e-01      1.8225e+00     -2.7595e-01      3.6222e-01      2.3658e+00      2.6738e-01      5.4333e-01     -1.8866e-01
     7.7000e+02     -1.8063e-01      1.8228e+00     -2.7296e-01      3.6126e-01      2.3647e+00      2.6892e-01      5.4189e-01     -1.8908e-01
     7.8000e+02     -1.8016e-01      1.8232e+00     -2.7008e-01      3.6032e-01      2.3637e+00      2.7040e-01      5.4048e-01     -1.8945e-01
     7.9000e+02     -1.7970e-01      1.8236e+00     -2.6730e-01      3.5940e-01      2.3627e+00      2.7180e-01      5.3910e-01     -1.8977e-01
     8.0000e+02     -1.7925e-01      1.8240e+00     -2.6461e-01      3.5851e-01      2.3617e+00      2.7314e-01      5.3776e-01     -1.9004e-01
     8.1000e+02     -1.7881e-01      1.8243e+00     -2.6202e-01      3.5763e-01      2.3608e+00      2.7443e-01      5.3644e-01     -1.9027e-01
     8.2000e+02     -1.7839e-01      1.8247e+00     -2.5951e-01      3.5677e-01      2.3598e+00      2.7565e-01      5.3516e-01     -1.9045e-01
     8.3000e+02     -1.7797e-01      1.8250e+00     -2.5708e-01      3.5593e-01      2.3589e+00      2.7682e-01      5.3390e-01     -1.9058e-01
     8.4000e+02     -1.7755e-01      1.8254e+00     -2.5472e-01      3.5511e-01      2.3580e+00      2.7794e-01      5.3266e-01     -1.9068e-01
     8.5000e+02     -1.7715e-01      1.8257e+00     -2.5245e-01      3.5430e-01      2.3572e+00      2.7900e-01      5.3145e-01     -1.9074e-01
     8.6000e+02     -1.7676e-01      1.8260e+00     -2.5025e-01      3.5351e-01      2.3563e+00      2.8002e-01      5.3027e-01     -1.9075e-01
     8.7000e+02     -1.7637e-01      1.8264e+00     -2.4811e-01      3.5274e-01      2.3555e+00      2.8099e-01      5.2910e-01     -1.9074e-01
     8.8000e+02     -1.7599e-01      1.8267e+00     -2.4604e-01      3.5198e-01      2.3546e+00      2.8192e-01      5.2796e-01     -1.9068e-01
     8.9000e+02     -1.7562e-01      1.8270e+00     -2.4404e-01      3.5123e-01      2.3538e+00      2.8281e-01      5.2685e-01     -1.9060e-01
     9.0000e+02     -1.7525e-01      1.8273e+00     -2.4209e-01      3.5050e-01      2.3530e+00      2.8365e-01      5.2575e-01     -1.9048e-01
     9.1000e+02     -1.7489e-01      1.8276e+00     -2.4021e-01      3.4978e-01      2.3523e+00      2.8446e-01      5.2467e-01     -1.9034e-01
     9.2000e+02     -1.7454e-01      1.8279e+00     -2.3838e-01      3.4907e-01      2.3515e+00      2.8523e-01      5.2361e-01     -1.9016e-01
     9.3000e+02     -1.7419e-01      1.8282e+00     -2.3660e-01      3.4838e-01      2.3508e+00      2.8597e-01      5.2257e-01     -1.8996e-01
     9.4000e+02     -1.7385e-01      1.8285e+00     -2.3487e-01      3.4770e-01      2.3500e+00      2.8667e-01      5.2155e-01     -1.8973e-01
     9.5000e+02     -1.7351e-01      1.8288e+00     -2.3320e-01      3.4703e-01      2.3493e+00      2.8734e-01      5.2054e-01     -1.8948e-01
     9.6000e+02     -1.7318e-01      1.8291e+00     -2.3157e-01      3.4637e-01      2.3486e+00      2.8798e-01      5.1955e-01     -1.8921e-01
     9.7000e+02     -1.7286e-01      1.8293e+00     -2.2999e-01      3.4572e-01      2.3479e+00      2.8859e-01      5.1858e-01     -1.8891e-01
     9.8000e+02     -1.7254e-01      1.8296e+00     -2.2845e-01      3.4508e-01      2.3472e+00      2.8917e-01      5.1762e-01     -1.8859e-01
     9.9000e+02     -1.7223e-01      1.8299e+00     -2.2695e-01      3.4446e-01      2.3466e+00      2.8973e-01      5.1668e-01     -1.8825e-01
     1.0000e+03     -1.7192e-01      1.8302e+00     -2.2550e-01      3.4384e-01      2.3459e+00      2.9026e-01      5.1576e-01     -1.8789e-01
     1.0100e+03     -1.7162e-01      1.8304e+00     -2.2408e-01      3.4323e-01      2.3453e+00      2.9076e-01      5.1485e-01     -1.8752e-01
     1.0200e+03     -1.7132e-01      1.8307e+00     -2.2271e-01      3.4263e-01      2.3446e+00      2.9124e-01      5.1395e-01     -1.8713e-01
     1.0300e+03     -1.7102e-01      1.8309e+00     -2.2136e-01      3.4204e-01      2.3440e+00      2.9170e-01      5.1307e-01     -1.8672e-01
     1.0400e+03     -1.7073e-01      1.8312e+00     -2.2006e-01      3.4146e-01      2.3434e+00      2.9214e-01      5.1220e-01     -1.8630e-01
     1.0500e+03     -1.7045e-01      1.8314e+00     -2.1878e-01      3.4089e-01      2.3428e+00      2.9256e-01      5.1134e-01     -1.8586e-01
     1.0600e+03     -1.7017e-01      1.8317e+00     -2.1754e-01      3.4033e-01      2.3422e+00      2.9295e-01      5.1050e-01     -1.8541e-01
     1.0700e+03     -1.6989e-01      1.8319e+00     -2.1634e-01      3.3978e-01      2.3416e+00      2.9333e-01      5.0967e-01     -1.8495e-01
     1.0800e+03     -1.6962e-01      1.8322e+00     -2.1516e-01      3.3923e-01      2.3410e+00      2.9369e-01      5.0885e-01     -1.8448e-01
     1.0900e+03     -1.6935e-01      1.8324e+00     -2.1401e-01      3.3869e-01      2.3404e+00      2.9403e-01      5.0804e-01     -1.8399e-01
     1.1000e+03     -1.6908e-01      1.8326e+00     -2.1289e-01      3.3816e-01      2.3399e+00      2.9436e-01      5.0725e-01     -1.8350e-01
     1.1100e+03     -1.6882e-01      1.8329e+00     -2.1180e-01      3.3764e-01      2.3393e+00      2.9467e-01      5.0646e-01     -1.8299e-01
     1.1200e+03     -1.6856e-01      1.8331e+00     -2.1073e-01      3.3713e-01      2.3388e+00      2.9496e-01      5.0569e-01     -1.8248e-01
     1.1300e+03     -1.6831e-01      1.8333e+00     -2.0969e-01      3.3662e-01      2.3382e+00      2.9524e-01      5.0493e-01     -1.8196e-01
     1.1400e+03     -1.6806e-01      1.8335e+00     -2.0867e-01      3.3612e-01      2.3377e+00      2.9551e-01      5.0418e-01     -1.8143e-01
     1.1500e+03     -1.6781e-01      1.8338e+00     -2.0768e-01      3.3563e-01      2.3372e+00      2.9576e-01      5.0344e-01     -1.8090e-01
     1.1600e+03     -1.6757e-01      1.8340e+00     -2.0671e-01      3.3514e-01      2.3367e+00      2.9600e-01      5.0271e-01     -1.8036e-01
     1.1700e+03     -1.6733e-01      1.8342e+00     -2.0577e-01      3.3466e-01      2.3362e+00      2.9622e-01      5.0199e-01     -1.7981e-01
     1.1800e+03     -1.6709e-01      1.8344e+00     -2.0484e-01      3.3419e-01      2.3357e+00      2.9644e-01      5.0128e-01     -1.7926e-01
     1.1900e+03     -1.6686e-01      1.8346e+00     -2.0394e-01      3.3372e-01      2.3352e+00      2.9664e-01      5.0058e-01     -1.7870e-01
     1.2000e+03     -1.6663e-01      1.8348e+00     -2.0306e-01      3.3326e-01      2.3347e+00      2.9683e-01      4.9989e-01     -1.7814e-01
     1.2100e+03     -1.6640e-01      1.8350e+00     -2.0219e-01      3.3281e-01      2.3342e+00      2.9702e-01      4.9921e-01     -1.7757e-01
