 #p(MeV) \t \delta f_\\nu \t \delta f_\\nubar
  8.2533116839254884E-03  2.6826319756162970E-01  1.6400638526404848E-05
  8.3355369603647922E-03  2.6776660648564682E-01  1.6264010872829867E-05
  8.4185814226466274E-03  2.6734029768745798E-01  1.6128351364115953E-05
  8.5024532320746062E-03  2.6702707024716815E-01  1.5993657791276171E-05
  8.5871606312609445E-03  2.6668536484213229E-01  1.5859928424928956E-05
  8.6727119449365592E-03  2.6614846081747573E-01  1.5727161897566863E-05
  8.7591155807691615E-03  2.6561118010066498E-01  1.5595357061096922E-05
  8.8463800301895375E-03  2.6506208144171894E-01  1.5464512995773468E-05
  8.9345138692260746E-03  2.6461053839906051E-01  1.5334629096517774E-05
  9.0235257593475511E-03  2.6416860176496715E-01  1.5205704743802093E-05
  9.1134244483143806E-03  2.6372883461239338E-01  1.5077738630293525E-05
  9.2042187710382924E-03  2.6324612062533914E-01  1.4950728169147739E-05
  9.2959176504505917E-03  2.6279302079374212E-01  1.4824669226867632E-05
  9.3885300983790991E-03  2.6230146230781509E-01  1.4699556166433802E-05
  9.4820652164337611E-03  2.6183307391236088E-01  1.4575382067621917E-05
  9.5765321969011642E-03  2.6142444234013784E-01  1.4452139004138156E-05
  9.6719403236478763E-03  2.6097616425058601E-01  1.4329818304912214E-05
  9.7682989730328591E-03  2.6057085739178698E-01  1.4208410757861628E-05
  9.8656176148289431E-03  2.6012462840781586E-01  1.4087906845289951E-05
  9.9639058131534598E-03  2.5968759015733867E-01  1.3968296902532286E-05
  1.0063173227408202E-02  2.5925023758944649E-01  1.3849570916814472E-05
  1.0163429613228673E-02  2.5876795193624647E-01  1.3731718428844913E-05
  1.0264684823442859E-02  2.5825042058701064E-01  1.3614728892515672E-05
  1.0366948809039545E-02  2.5773203531105859E-01  1.3498592255980788E-05
  1.0470231620146212E-02  2.5725221372050561E-01  1.3383299423117025E-05
  1.0574543407016785E-02  2.5683937595422318E-01  1.3268842448140213E-05
  1.0679894421029117E-02  2.5642316857710307E-01  1.3155214503985785E-05
  1.0786295015692468E-02  2.5601888034221054E-01  1.3042409728598006E-05
  1.0893755647665031E-02  2.5551522363153195E-01  1.2930423032599271E-05
  1.1002286877781547E-02  2.5498545411593931E-01  1.2819249924384091E-05
  1.1111899372091203E-02  2.5451117314989630E-01  1.2708886322800903E-05
  1.1222603902905838E-02  2.5400742031524526E-01  1.2599328336191481E-05
  1.1334411349858608E-02  2.5355836513857027E-01  1.2490572339335119E-05
  1.1447332700973225E-02  2.5312745049722213E-01  1.2382615258957427E-05
  1.1561379053743760E-02  2.5268954672721217E-01  1.2275454633885762E-05
  1.1676561616225333E-02  2.5222537945822154E-01  1.2169088373156220E-05
  1.1792891708135545E-02  2.5184629021458027E-01  1.2063514404464016E-05
  1.1910380761966958E-02  2.5141826138103662E-01  1.1958730398526164E-05
  1.2029040324110660E-02  2.5098448524024164E-01  1.1854733635504057E-05
  1.2148882055990958E-02  2.5051785589896691E-01  1.1751520984737715E-05
  1.2269917735211444E-02  2.5002462841969614E-01  1.1649088948699255E-05
  1.2392159256712472E-02  2.4957735917099533E-01  1.1547433728852655E-05
  1.2515618633940106E-02  2.4913079911896252E-01  1.1446551293930844E-05
  1.2640308000026806E-02  2.4862148904281361E-01  1.1346437461318056E-05
  1.2766239608983775E-02  2.4819077539843504E-01  1.1247087940831887E-05
  1.2893425836905292E-02  2.4774347361354704E-01  1.1148498392275406E-05
  1.3021879183184945E-02  2.4727625384145216E-01  1.1050664638734732E-05
  1.3151612271744042E-02  2.4684965519837951E-01  1.0953582984505672E-05
  1.3282637852272261E-02  2.4640455359630337E-01  1.0857250471890681E-05
  1.3414968801480614E-02  2.4594120371638251E-01  1.0761664977751050E-05
  1.3548618124366925E-02  2.4546031899153659E-01  1.0666825156908291E-05
  1.3683598955493946E-02  2.4501728783668869E-01  1.0572730297748498E-05
  1.3819924560280127E-02  2.4459914744504491E-01  1.0479380152855720E-05
  1.3957608336303339E-02  2.4419942128988228E-01  1.0386774783656698E-05
  1.4096663814617487E-02  2.4374484809524191E-01  1.0294914434627315E-05
  1.4237104661082349E-02  2.4332378923365328E-01  1.0203799448956396E-05
  1.4378944677706560E-02  2.4284403013729206E-01  1.0113430177821312E-05
  1.4522197804004038E-02  2.4234057948744606E-01  1.0023806702834018E-05
  1.4666878118363922E-02  2.4185860440260992E-01  9.9349283284375457E-06
  1.4812999839434130E-02  2.4138704821228676E-01  9.8467930463817297E-06
  1.4960577327518701E-02  2.4105554563459183E-01  9.7593972125438940E-06
  1.5109625085989118E-02  2.4061966430354836E-01  9.6727355246843275E-06
  1.5260157762709585E-02  2.4016536733439628E-01  9.5868012345635864E-06
  1.5412190151476634E-02  2.3963761198830699E-01  9.5015864695523948E-06
  1.5565737193472927E-02  2.3919931378350071E-01  9.4170825614099230E-06
  1.5720813978735700E-02  2.3866441940624611E-01  9.3332803275272504E-06
  1.5877435747639692E-02  2.3825854662341775E-01  9.2501702903159801E-06
  1.6035617892394941E-02  2.3781425264878001E-01  9.1677428428271578E-06
  1.6195375958559490E-02  2.3734033069316626E-01  9.0859884085863012E-06
  1.6356725646567108E-02  2.3692425610837331E-01  9.0048977617385041E-06
  1.6519682813270285E-02  2.3651539187233517E-01  8.9244625079558719E-06
  1.6684263473498627E-02  2.3614368759458659E-01  8.8446755022646983E-06
  1.6850483801632659E-02  2.3568734262741689E-01  8.7655310235561311E-06
  1.7018360133193453E-02  2.3524421646639354E-01  8.6870246859587181E-06
  1.7187908966447962E-02  2.3477699149070530E-01  8.6091531845002120E-06
  1.7359146964030472E-02  2.3432878798187637E-01  8.5319139912028958E-06
  1.7532090954580099E-02  2.3389330026834668E-01  8.4553050804401564E-06
  1.7706757934394631E-02  2.3342530915784268E-01  8.3793247161605549E-06
  1.7883165069100947E-02  2.3301986239634501E-01  8.3039713012675671E-06
  1.8061329695341879E-02  2.3257715041510887E-01  8.2292432691913770E-06
  1.8241269322480064E-02  2.3213750255995044E-01  8.1551389740015088E-06
  1.8423001634318713E-02  2.3166198695349985E-01  8.0816564492989966E-06
  1.8606544490839431E-02  2.3121330948982557E-01  8.0087930492395494E-06
  1.8791915929957530E-02  2.3075313303959466E-01  7.9365452235032642E-06
  1.8979134169294625E-02  2.3031799380161527E-01  7.8649085734150219E-06
  1.9168217607969103E-02  2.2989342018750161E-01  7.7938781285296144E-06
  1.9359184828404229E-02  2.2948797170529292E-01  7.7234486873073033E-06
  1.9552054598154386E-02  2.2910356493757802E-01  7.6536150954041365E-06
  1.9746845871749536E-02  2.2866983673398619E-01  7.5843724160766468E-06
  1.9943577792557919E-02  2.2822645340308165E-01  7.5157160035662479E-06
  2.0142269694667422E-02  2.2776101092268763E-01  7.4476415107749238E-06
  2.0342941104785704E-02  2.2725886223633682E-01  7.3801448669443822E-06
  2.0545611744159135E-02  2.2679256726375210E-01  7.3132222626145726E-06
  2.0750301530511002E-02  2.2630359261839036E-01  7.2468702283170216E-06
  2.0957030579998873E-02  2.2588526512665483E-01  7.1810858150115379E-06
  2.1165819209191628E-02  2.2547254955083143E-01  7.1158666513769544E-06
  2.1376687937066003E-02  2.2503239919915499E-01  7.0512107268913858E-06
  2.1589657487023177E-02  2.2468491659575873E-01  6.9871159808148986E-06
  2.1804748788925399E-02  2.2425016671304251E-01  6.9235798820506549E-06
  2.2021982981152849E-02  2.2382674331644725E-01  6.8605991504007936E-06
  2.2241381412681078E-02  2.2339947133412999E-01  6.7981696599762687E-06
  2.2462965645179109E-02  2.2295979717870890E-01  6.7362864824285132E-06
  2.2686757455128399E-02  2.2249773727177816E-01  6.6749440088385624E-06
  2.2912778835963023E-02  2.2203846882844283E-01  6.6141360970560650E-06
  2.3141052000231005E-02  2.2163790120375684E-01  6.5538562066224648E-06
  2.3371599381777401E-02  2.2120435210120559E-01  6.4940974674466121E-06
  2.3604443637948912E-02  2.2074998747212576E-01  6.4348526594317085E-06
  2.3839607651820624E-02  2.2028744807685474E-01  6.3761142681083994E-06
  2.4077114534444877E-02  2.1984630953612599E-01  6.3178747745894920E-06
  2.4316987627122491E-02  2.1944462381597007E-01  6.2601271281219911E-06
  2.4559250503696679E-02  2.1901711236778143E-01  6.2028652227287878E-06
  2.4803926972869848E-02  2.1863846411395135E-01  6.1460842103812838E-06
  2.5051041080543346E-02  2.1823920348072856E-01  6.0897805858604913E-06
  2.5300617112180651E-02  2.1781724278048589E-01  6.0339520904296488E-06
  2.5552679595194069E-02  2.1732573762312118E-01  5.9785975142519329E-06
  2.5807253301355186E-02  2.1680340301568760E-01  5.9237164665351376E-06
  2.6064363249229318E-02  2.1631253015541843E-01  5.8693091591806227E-06
  2.6324034706634261E-02  2.1586764906766734E-01  5.8153762435774780E-06
  2.6586293193123570E-02  2.1547810840191614E-01  5.7619187479558557E-06
  2.6851164482494434E-02  2.1512348371955756E-01  5.7089380427504562E-06
  2.7118674605320678E-02  2.1475494864328365E-01  5.6564356835384077E-06
  2.7388849851510993E-02  2.1434869179634608E-01  5.6044130938759134E-06
  2.7661716772892534E-02  2.1393348522808045E-01  5.5528711780190490E-06
  2.7937302185820367E-02  2.1345170198133431E-01  5.5018099963753074E-06
  2.8215633173812898E-02  2.1299094190054566E-01  5.4512286018481954E-06
  2.8496737090213553E-02  2.1258286606518709E-01  5.4011250369680964E-06
  2.8780641560878895E-02  2.1216266368428924E-01  5.3514964409513647E-06
  2.9067374486893640E-02  2.1173130161963064E-01  5.3023392100035988E-06
  2.9356964047312712E-02  2.1130977828862740E-01  5.2536491665266290E-06
  2.9649438701930493E-02  2.1086379768232605E-01  5.2054217054585426E-06
  2.9944827194077768E-02  2.1044190546006342E-01  5.1576518609552965E-06
  3.0243158553446607E-02  2.1005212544127047E-01  5.1103342735991548E-06
  3.0544462098943157E-02  2.0962679884058077E-01  5.0634631542536456E-06
  3.0848767441569055E-02  2.0920528988335982E-01  5.0170323428457584E-06
  3.1156104487331537E-02  2.0875413583896812E-01  4.9710354808093064E-06
  3.1466503440182453E-02  2.0829816227105905E-01  4.9254662440265516E-06
  3.1779994804986535E-02  2.0790076649509798E-01  4.8803185497102117E-06
  3.2096609390519379E-02  2.0746860828768332E-01  4.8355866874429089E-06
  3.2416378312495261E-02  2.0704005922755941E-01  4.7912653711979076E-06
  3.2739332996624945E-02  2.0662067288824973E-01  4.7473497303410672E-06
  3.3065505181704147E-02  2.0619022851130278E-01  4.7038352659641311E-06
  3.3394926922732798E-02  2.0580365679285276E-01  4.6607177947929296E-06
  3.3727630594065132E-02  2.0542263456950349E-01  4.6179934154511747E-06
  3.4063648892591392E-02  2.0500029187069199E-01  4.5756585434578443E-06
  3.4403014840951214E-02  2.0455395191839565E-01  4.5337099810857841E-06
  3.4745761790778901E-02  2.0410003418715006E-01  4.4921449407336564E-06
  3.5091923425981088E-02  2.0364333272724569E-01  4.4509609754625179E-06
  3.5441533766047098E-02  2.0321728048644855E-01  4.4101558305580793E-06
  3.5794627169392322E-02  2.0277631170803012E-01  4.3697272730541313E-06
  3.6151238336734691E-02  2.0236235529943497E-01  4.3296729540007066E-06
  3.6511402314505025E-02  2.0196990130702386E-01  4.2899903256334078E-06
  3.6875154498291311E-02  2.0156273217082041E-01  4.2506766128713547E-06
  3.7242530636317141E-02  2.0118506739159642E-01  4.2117288235877688E-06
  3.7613566832954970E-02  2.0077928824395860E-01  4.1731437793478116E-06
  3.7988299552274341E-02  2.0039687011122698E-01  4.1349181521713876E-06
  3.8366765621625450E-02  1.9999636287093098E-01  4.0970484828678854E-06
  3.8749002235258297E-02  1.9955897886196031E-01  4.0595311886693245E-06
  3.9135046957978099E-02  1.9912600368698996E-01  4.0223626035888291E-06
  3.9524937728837042E-02  1.9866110523664290E-01  3.9855390778988582E-06
  3.9918712864862690E-02  1.9822597742419548E-01  3.9490571226813687E-06
  4.0316411064823698E-02  1.9778394675018757E-01  3.9129135539974090E-06
  4.0718071413033040E-02  1.9738382126275675E-01  3.8771055901505371E-06
  4.1123733383188942E-02  1.9698975587183123E-01  3.8416308862606179E-06
  4.1533436842254294E-02  1.9655817487911448E-01  3.8064875127999603E-06
  4.1947222054374643E-02  1.9615586873755933E-01  3.7716738975032433E-06
  4.2365129684835232E-02  1.9570161775637818E-01  3.7371887529656407E-06
  4.2787200804057221E-02  1.9528836684792714E-01  3.7030310023382935E-06
  4.3213476891634232E-02  1.9484503781637566E-01  3.6691997141865505E-06
  4.3643999840408662E-02  1.9442752705031610E-01  3.6356940588037386E-06
  4.4078811960588722E-02  1.9406215550989814E-01  3.6025132872882435E-06
  4.4517955983906572E-02  1.9371377094775857E-01  3.5696567246890690E-06
  4.4961475067817919E-02  1.9331856314638615E-01  3.5371237624900136E-06
  4.5409412799743219E-02  1.9293826835438835E-01  3.5049138419352140E-06
  4.5861813201351374E-02  1.9250861923371748E-01  3.4730264342863793E-06
  4.6318720732886037E-02  1.9207904521683453E-01  3.4414610209053516E-06
  4.6780180297535015E-02  1.9163473788959287E-01  3.4102170751435583E-06
  4.7246237245843016E-02  1.9120327505944648E-01  3.3792940490870685E-06
  4.7716937380168779E-02  1.9077668822735047E-01  3.3486913649181412E-06
  4.8192326959186252E-02  1.9035834393132969E-01  3.3184084095227716E-06
  4.8672452702430646E-02  1.8994850485413800E-01  3.2884445302146878E-06
  4.9157361794889942E-02  1.8953253906359574E-01  3.2587990672828863E-06
  4.9647101891642141E-02  1.8912657734407287E-01  3.2294715386590455E-06
  5.0141721122538417E-02  1.8874376673351828E-01  3.2004620631779136E-06
  5.0641268096933312E-02  1.8834707636595613E-01  3.1717719799409663E-06
  5.1145791908461830E-02  1.8793245297328395E-01  3.1434045044751801E-06
  5.1655342139864252E-02  1.8754348485970057E-01  3.1153652263691405E-06
  5.2169968867858699E-02  1.8713568080076251E-01  3.0876623172095162E-06
  5.2689722668062815E-02  1.8672459432732025E-01  3.0603064300446979E-06
  5.3214654619963983E-02  1.8629829738220713E-01  3.0333103646755924E-06
  5.3744816311939170E-02  1.8589578517288372E-01  3.0066886114194031E-06
  5.4280259846324952E-02  1.8547610708430431E-01  2.9804568749989950E-06
  5.4821037844537970E-02  1.8506598299359769E-01  2.9546316458826269E-06
  5.5367203452246196E-02  1.8460689669956176E-01  2.9292298425590327E-06
  5.5918810344592049E-02  1.8422804160247438E-01  2.9042684627970487E-06
  5.6475912731467362E-02  1.8384158911248724E-01  2.8797641734150791E-06
  5.7038565362840958E-02  1.8343876253200514E-01  2.8557328213037519E-06
  5.7606823534139040E-02  1.8304460287858154E-01  2.8321889123543928E-06
  5.8180743091679803E-02  1.8266777480409024E-01  2.8091451595338848E-06
  5.8760380438161557E-02  1.8227118799307623E-01  2.7866122308530344E-06
  5.9345792538205794E-02  1.8186909495511352E-01  2.7645987232650301E-06
  5.9937036923955488E-02  1.8140381052057569E-01  2.7431113313166961E-06
  6.0534171700729222E-02  1.8100796155385965E-01  2.7221551430477481E-06
  6.1137255552731438E-02  1.8059736826988043E-01  2.7017339856742821E-06
  6.1746347748819735E-02  1.8016090351720354E-01  2.6818507563426153E-06
  6.2361508148329699E-02  1.7979502673796954E-01  2.6625077160440512E-06
  6.2982797206957569E-02  1.7937427131492029E-01  2.6437069001512943E-06
  6.3610275982701484E-02  1.7903282728937953E-01  2.6254509332514624E-06
  6.4244006141862264E-02  1.7865350771701419E-01  2.6077443922514821E-06
  6.4884049965103704E-02  1.7823808894895105E-01  2.5905955940892609E-06
  6.5530470353573123E-02  1.7787023180068740E-01  2.5740184564635357E-06
  6.6183330835083126E-02  1.7745436859293856E-01  2.5580339632818243E-06
  6.6842695570355090E-02  1.7706216419399845E-01  2.5426709109432567E-06
  6.7508629359324335E-02  1.7667669476446027E-01  2.5279658672351869E-06
  6.8181197647508560E-02  1.7627606940542628E-01  2.5139624944233641E-06
  6.8860466532439657E-02  1.7587904329832998E-01  2.5007105091933128E-06
  6.9546502770159502E-02  1.7546817841119117E-01  2.4882645512220927E-06
  7.0239373781780259E-02  1.7510957011005865E-01  2.4766831649741661E-06
  7.0939147660110655E-02  1.7474711191360115E-01  2.4660279285831668E-06
  7.1645893176347702E-02  1.7437311859979721E-01  2.4563625290034299E-06
  7.2359679786835190E-02  1.7400155129411171E-01  2.4477516235932056E-06
  7.3080577639889704E-02  1.7364877939571752E-01  2.4402594369963945E-06
  7.3808657582694656E-02  1.7328167651093307E-01  2.4339481862162121E-06
  7.4543991168262630E-02  1.7294445140609310E-01  2.4288766904713320E-06
  7.5286650662467466E-02  1.7259420984983959E-01  2.4250995382248933E-06
  7.6036709051146456E-02  1.7224776839456110E-01  2.4226669292122685E-06
  7.6794240047272824E-02  1.7188006848179452E-01  2.4216251779359464E-06
  7.7559318098200075E-02  1.7152528307284728E-01  2.4220177103931685E-06
  7.8332018392978570E-02  1.7114172800948504E-01  2.4238863237382187E-06
  7.9112416869744656E-02  1.7076814706933624E-01  2.4272725062796920E-06
  7.9900590223183576E-02  1.7039032150789379E-01  2.4322186336829749E-06
  8.0696615912066755E-02  1.7002051985503611E-01  2.4387688789454584E-06
  8.1500572166864349E-02  1.6964161629410957E-01  2.4469696331417390E-06
  8.2312537997433169E-02  1.6933801052793035E-01  2.4568693592529622E-06
  8.3132593200781549E-02  1.6902041399442597E-01  2.4685179876223366E-06
  8.3960818368911755E-02  1.6872750234380665E-01  2.4819660715626403E-06
  8.4797294896739997E-02  1.6841889722716100E-01  2.4972638913469280E-06
  8.5642104990095502E-02  1.6812586309099020E-01  2.5144608340854337E-06
  8.6495331673799844E-02  1.6777372755809489E-01  2.5336052253671862E-06
  8.7357058799826068E-02  1.6746930081590958E-01  2.5547446169520497E-06
  8.8227371055539086E-02  1.6710983076979552E-01  2.5779264179733793E-06
  8.9106353972018965E-02  1.6680699614063224E-01  2.6031987094470714E-06
  8.9994093932466365E-02  1.6647341485739195E-01  2.6306110755086525E-06
  9.0890678180691645E-02  1.6613292931893625E-01  2.6602152368329906E-06
  9.1796194829689454E-02  1.6581924330389272E-01  2.6920651255465612E-06
  9.2710732870297866E-02  1.6550367460396614E-01  2.7262160440347889E-06
  9.3634382179943673E-02  1.6520186262847944E-01  2.7627227498541612E-06
  9.4567233531476252E-02  1.6487315343925191E-01  2.8016365848571733E-06
  9.5509378602087219E-02  1.6456308057926197E-01  2.8430019099485865E-06
  9.6460909982320542E-02  1.6426661704369477E-01  2.8868524502824685E-06
  9.7421921185172747E-02  1.6394978012175951E-01  2.9332081827368615E-06
  9.8392506655281695E-02  1.6362067431941571E-01  2.9820731567659582E-06
  9.9372761778209279E-02  1.6332005169113373E-01  3.0334343336751975E-06
  1.0036278288981527E-01  1.6300688519491086E-01  3.0872612562064072E-06
  1.0136266728572450E-01  1.6266125542791504E-01  3.1435061813645705E-06
  1.0237251323088931E-01  1.6234130027047591E-01  3.2021043696971664E-06
  1.0339241996924635E-01  1.6200680040640716E-01  3.2629744775676489E-06
  1.0442248773346967E-01  1.6170523807562084E-01  3.3260189885766472E-06
  1.0546281775482177E-01  1.6138560042451017E-01  3.3911248765717096E-06
  1.0651351227310198E-01  1.6107569162662280E-01  3.4581648621093113E-06
  1.0757467454669382E-01  1.6076772726488756E-01  3.5269990782483370E-06
  1.0864640886271355E-01  1.6045497419574570E-01  3.5974768054249224E-06
  1.0972882054725880E-01  1.6009486152373881E-01  3.6694380877913737E-06
  1.1082201597575923E-01  1.5980079504103345E-01  3.7427148210566560E-06
  1.1192610258343150E-01  1.5943339396604070E-01  3.8171310333672282E-06
  1.1304118887583717E-01  1.5908086153470682E-01  3.8925023135584859E-06
  1.1416738443954583E-01  1.5874113721906102E-01  3.9686345630075290E-06
  1.1530479995290607E-01  1.5838976736959370E-01  4.0453224368442908E-06
  1.1645354719692114E-01  1.5804650847595003E-01  4.1223478511173068E-06
  1.1761373906623493E-01  1.5770700950874303E-01  4.1994791609683729E-06
  1.1878548958022764E-01  1.5737754115986582E-01  4.2764715286633637E-06
  1.1996891389421964E-01  1.5703859257324151E-01  4.3530687914860900E-06
  1.2116412831078979E-01  1.5665367088783433E-01  4.4290070188553518E-06
  1.2237125029120480E-01  1.5634344485942261E-01  4.5040197629667745E-06
