 #p(MeV) \t \delta f_\\nu \t \delta f_\\nubar
  4.8690637113748281E-01  2.6826117578398084E-01  1.3517770204502891E-05
  4.9175727372060146E-01  2.6776457516425395E-01  1.3385644121953750E-05
  4.9665650439566067E-01  2.6733825733662081E-01  1.3254517473766606E-05
  5.0160454464099014E-01  2.6702502175790865E-01  1.3124387318051309E-05
  5.0660188073174317E-01  2.6668330786806338E-01  1.2995250689020049E-05
  5.1164900378768785E-01  2.6614639353980840E-01  1.2867104625265554E-05
  5.1674640982147124E-01  2.6560910240212054E-01  1.2739946138379826E-05
  5.2189459978736585E-01  2.6505999309992828E-01  1.2613772302861077E-05
  5.2709407963050259E-01  2.6460844015735224E-01  1.2488580400928759E-05
  5.3234536033659152E-01  2.6416649358730537E-01  1.2364367634234813E-05
  5.3764895798214141E-01  2.6372671639296502E-01  1.2241130475954841E-05
  5.4300539378517632E-01  2.6324399185038760E-01  1.2118864099034823E-05
  5.4841519415645956E-01  2.6279088159335445E-01  1.1997562212362457E-05
  5.5387889075122831E-01  2.6229931219782388E-01  1.1877217836575663E-05
  5.5939702052144069E-01  2.6183091295960248E-01  1.1757823983158913E-05
  5.6497012576854821E-01  2.6142227094314069E-01  1.1639373703526151E-05
  5.7059875419678807E-01  2.6097398190801452E-01  1.1521860087230403E-05
  5.7628345896701128E-01  2.6056866435128595E-01  1.1405276245337635E-05
  5.8202479875104596E-01  2.6012242415246822E-01  1.1289615373569577E-05
  5.8782333778659956E-01  2.5968537462585528E-01  1.1174870782998015E-05
  5.9367964593271194E-01  2.5924801063323072E-01  1.1061035607173161E-05
  5.9959429872575731E-01  2.5876571299365869E-01  1.0948102637739209E-05
  6.0556787743600704E-01  2.5824816918137689E-01  1.0836064641520304E-05
  6.1160096912475514E-01  2.5772977128168556E-01  1.0724914912416979E-05
  6.1769416670201016E-01  2.5724993727393913E-01  1.0614647691272086E-05
  6.2384806898476763E-01  2.5683708756594587E-01  1.0505257969132457E-05
  6.3006328075585638E-01  2.5642086806541081E-01  1.0396740876285983E-05
  6.3634041282337594E-01  2.5601656766638259E-01  1.0289091571757641E-05
  6.4268008208072491E-01  2.5551289769405072E-01  1.0182305243344756E-05
  6.4908291156722564E-01  2.5498311450133138E-01  1.0076377116358918E-05
  6.5554953052935583E-01  2.5450882021421994E-01  9.9713024213666627E-06
  6.6208057448258673E-01  2.5400505360157238E-01  9.8670762949082206E-06
  6.6867668527384028E-01  2.5355598499121867E-01  9.7636939462561183E-06
  6.7533851114456867E-01  2.5312505690829828E-01  9.6611510090511917E-06
  6.8206670679445769E-01  2.5268713944178300E-01  9.5594436467928809E-06
  6.8886193344577262E-01  2.5222295802729661E-01  9.4585683404695471E-06
  6.9572485890833691E-01  2.5184385526844005E-01  9.3585215612593954E-06
  7.0265615764516365E-01  2.5141581223903214E-01  9.2592995795345708E-06
  7.0965651083874037E-01  2.5098202163578881E-01  9.1608985766967089E-06
  7.1672660645797104E-01  2.5051537729102691E-01  9.0633147131371249E-06
  7.2386713932578806E-01  2.5002213431985082E-01  8.9665441299363059E-06
  7.3107881118743778E-01  2.4957484980621625E-01  8.8705829465046512E-06
  7.3836233077944335E-01  2.4912827426308579E-01  8.7754272588978289E-06
  7.4571841389925986E-01  2.4861894782522051E-01  8.6810731601143433E-06
  7.5314778347561617E-01  2.4818821836419344E-01  8.5875167358521844E-06
  7.6065116963956581E-01  2.4774090034542720E-01  8.4947540857520312E-06
  7.6822930979623860E-01  2.4727366387998473E-01  8.4027815100826614E-06
  7.7588294869731100E-01  2.4684704869608881E-01  8.3115958103607725E-06
  7.8361283851419894E-01  2.4640193009592756E-01  8.2211945336511300E-06
  7.9141973891197614E-01  2.4593856275392462E-01  8.1315759980972400E-06
  7.9930441712403233E-01  2.4545766010004408E-01  8.0427388025624951E-06
  8.0726764802747486E-01  2.4501461111698444E-01  7.9546814671583757E-06
  8.1531021421927907E-01  2.4459645285799608E-01  7.8674024135264848E-06
  8.2343290609320119E-01  2.4419670872168897E-01  7.7808999667822497E-06
  8.3163652191745241E-01  2.4374211664632633E-01  7.6951723581400115E-06
  8.3992186791315326E-01  2.4332103892747420E-01  7.6102177381247461E-06
  8.4828975833356290E-01  2.4284126000142228E-01  7.5260341560067816E-06
  8.5674101554410220E-01  2.4233778890484794E-01  7.4426193308013848E-06
  8.6527647010317399E-01  2.4185579322934153E-01  7.3599701774310707E-06
  8.7389696084378521E-01  2.4138421617427278E-01  7.2780822929250781E-06
  8.8260333495598486E-01  2.4105269386861683E-01  7.1969496463511633E-06
  8.9139644807012441E-01  2.4061679126077443E-01  7.1165645939153262E-06
  9.0027716434094296E-01  2.4016247238699837E-01  7.0369186086086331E-06
  9.0924635653249719E-01  2.3963469387769351E-01  6.9580031901198501E-06
  9.1830490610392812E-01  2.3919637305511102E-01  6.8798099897885863E-06
  9.2745370329609345E-01  2.3866145450850940E-01  6.8023308084512331E-06
  9.3669364721905291E-01  2.3825555853960195E-01  6.7255575962046715E-06
  9.4602564594043026E-01  2.3781124046056534E-01  6.6494824579428119E-06
  9.5545061657465757E-01  2.3733729356287103E-01  6.5740977013024572E-06
  9.6496948537310179E-01  2.3692119419359281E-01  6.4993960814746566E-06
  9.7458318781509556E-01  2.3651230473933907E-01  6.4253712316179841E-06
  9.8429266869987408E-01  2.3614057514982237E-01  6.3520180479429605E-06
  9.9409888223942244E-01  2.3568420333017193E-01  6.2793328442045605E-06
  1.0040027921522565E+00  2.3524104990689232E-01  6.2073132487620210E-06
  1.0140053717581294E+00  2.3477379679820121E-01  6.1359577539539697E-06
  1.0241076040736907E+00  2.3432556478260830E-01  6.0652649493577943E-06
  1.0343104819090885E+00  2.3389004809669336E-01  5.9952333086019091E-06
  1.0446150079655414E+00  2.3342202697531525E-01  5.9258611898646004E-06
  1.0550221949338832E+00  2.3301655030840265E-01  5.8571468375540449E-06
  1.0655330655940809E+00  2.3257380727741930E-01  5.7890883750063613E-06
  1.0761486529157529E+00  2.3213412769925634E-01  5.7216837593863756E-06
  1.0868700001596867E+00  2.3165857917856614E-01  5.6549305818508858E-06
  1.0976981609803629E+00  2.3120986837150015E-01  5.5888257339972363E-06
  1.1086341995295088E+00  2.3074965763502311E-01  5.5233651968585423E-06
  1.1196791905606747E+00  2.3031448360837281E-01  5.4585441057072222E-06
  1.1308342195348620E+00  2.2988987449051115E-01  5.3943570308203003E-06
  1.1421003827271932E+00  2.2948438987316822E-01  5.3307983185716125E-06
  1.1534787873346519E+00  2.2909994633663261E-01  5.2678623361041340E-06
  1.1649705515848969E+00  2.2866617975613973E-01  5.2055435319012964E-06
  1.1765768048461520E+00  2.2822275692169955E-01  5.1438364354615820E-06
  1.1882986877381996E+00  2.2775727359667930E-01  5.0827356559148633E-06
  1.2001373522444772E+00  2.2725508247015952E-01  5.0222358862907677E-06
  1.2120939618252866E+00  2.2678874441348787E-01  4.9623319288213260E-06
  1.2241696915321394E+00  2.2629972518104083E-01  4.9030188115613550E-06
  1.2363657281232312E+00  2.2588135286654279E-01  4.8442919985725819E-06
  1.2486832701800776E+00  2.2546859127348359E-01  4.7861474739250993E-06
  1.2611235282253008E+00  2.2502839317573606E-01  4.7285815447659548E-06
  1.2736877248415988E+00  2.2468086278849150E-01  4.6715904428601790E-06
  1.2863770947918969E+00  2.2424606239377398E-01  4.6151699393492264E-06
  1.2991928851406920E+00  2.2382258712904884E-01  4.5593154196078764E-06
  1.3121363553766126E+00  2.2339526163013457E-01  4.5040222359208568E-06
  1.3252087775361967E+00  2.2295553210597505E-01  4.4492857574912772E-06
  1.3384114363288997E+00  2.2249341474241865E-01  4.3951013711529823E-06
  1.3517456292633565E+00  2.2203408705968378E-01  4.3414644795932969E-06
  1.3652126667748889E+00  2.2163345922110461E-01  4.2883704905441109E-06
  1.3788138723542973E+00  2.2119984739918871E-01  4.2358147620756817E-06
  1.3925505826779228E+00  2.2074541763038757E-01  4.1837924909103615E-06
  1.4064241477390134E+00  2.2028281077081302E-01  4.1322986986496890E-06
  1.4204359309803980E+00  2.1984160282422191E-01  4.0813284702813059E-06
  1.4345873094284771E+00  2.1943984596317342E-01  4.0308773933165873E-06
  1.4488796738285530E+00  2.1901226042001343E-01  3.9809420013264292E-06
  1.4633144287815096E+00  2.1863353627090812E-01  3.9315197409843145E-06
  1.4778929928818483E+00  2.1823419660043417E-01  3.8826082427207733E-06
  1.4926167988571020E+00  2.1781215350695679E-01  3.8342051014142205E-06
  1.5074872937086417E+00  2.1732056155118784E-01  3.7863078749722850E-06
  1.5225059388538802E+00  2.1679813620901836E-01  3.7389140855624151E-06
  1.5376742102698944E+00  2.1630716961677957E-01  3.6920212241583629E-06
  1.5529935986384777E+00  2.1586219188153699E-01  3.6456267766392490E-06
  1.5684656094926448E+00  2.1547255163601350E-01  3.5997283057817446E-06
  1.5840917633645815E+00  2.1511782383047665E-01  3.5543235227570835E-06
  1.5998735959350820E+00  2.1474918085707878E-01  3.5094102073333876E-06
  1.6158126581844716E+00  2.1434281052921150E-01  3.4649859435190188E-06
  1.6319105165450263E+00  2.1392748512169846E-01  3.4210477713501809E-06
  1.6481687530549183E+00  2.1344557607231548E-01  3.3775920012606263E-06
  1.6645889655136943E+00  2.1298468465226830E-01  3.3346146399454333E-06
  1.6811727676393007E+00  2.1257647223898543E-01  3.2921116865505774E-06
  1.6979217892266718E+00  2.1215612617376331E-01  3.2500791454861783E-06
  1.7148376763079007E+00  2.1172461280804331E-01  3.2085130271633243E-06
  1.7319220913140096E+00  2.1130293047068477E-01  3.1674093475180586E-06
  1.7491767132383205E+00  2.1085678170882327E-01  3.1267641188993490E-06
  1.7666032378014636E+00  2.1043471264657587E-01  3.0865732900584738E-06
  1.7842033776180304E+00  2.1004474657400357E-01  3.0468326183721869E-06
  1.8019788623648765E+00  2.0961922214127338E-01  3.0075375639435375E-06
  1.8199314389511092E+00  2.0919750359029815E-01  2.9686832991033860E-06
  1.8380628716897733E+00  2.0874612619478577E-01  2.9302648441880164E-06
  1.8563749424712357E+00  2.0828991492882673E-01  2.8922772620196619E-06
  1.8748694509383013E+00  2.0789226755092308E-01  2.8547157405757633E-06
  1.8935482146630798E+00  2.0745983962265011E-01  2.8175755510124364E-06
  1.9124130693256105E+00  2.0703100202360314E-01  2.7808520387561999E-06
  1.9314658688942612E+00  2.0661130646444398E-01  2.7445406218818769E-06
  1.9507084858079318E+00  2.0618052919294347E-01  2.7086367902081804E-06
  1.9701428111600747E+00  2.0579360002024191E-01  2.6731361060149186E-06
  1.9897707548845380E+00  2.0541219142883654E-01  2.6380342270009577E-06
  2.0095942459432683E+00  2.0498942806466008E-01  2.6033269899712153E-06
  2.0296152325158876E+00  2.0454262929929645E-01  2.5690105197971639E-06
  2.0498356821911461E+00  2.0408821000440674E-01  2.5350812816615902E-06
  2.0702575821602922E+00  2.0363095824764629E-01  2.5015360347184683E-06
  2.0908829394123667E+00  2.0320430103226078E-01  2.4683717049843753E-06
  2.1117137809314448E+00  2.0276266174950630E-01  2.4355852540863073E-06
  2.1327521538958338E+00  2.0234796026757434E-01  2.4031736403309703E-06
  2.1540001258792674E+00  2.0195467299398911E-01  2.3711338198157893E-06
  2.1754597850541018E+00  2.0154656361625892E-01  2.3394627471905992E-06
  2.1971332403965249E+00  2.0116783246829634E-01  2.3081573760225494E-06
  2.2190226218938256E+00  2.0076082979238502E-01  2.2772146593659817E-06
  2.2411300807537211E+00  2.0037699750621998E-01  2.2466315495550588E-06
  2.2634577896157677E+00  1.9997483397029703E-01  2.2164049793916825E-06
  2.2860079427648765E+00  1.9953548272380478E-01  2.1865318361849971E-06
  2.3087827563469649E+00  1.9910013765797652E-01  2.1570089767425309E-06
  2.3317844685867519E+00  1.9863232581909959E-01  2.1278333078721314E-06
  2.3550153400077165E+00  1.9819353862775957E-01  2.0990019136936965E-06
  2.3784776536542576E+00  1.9774676886616233E-01  2.0705121328487764E-06
  2.4021737153160667E+00  1.9734027320558284E-01  2.0423613969206497E-06
  2.4261058537547240E+00  1.9693718148681824E-01  2.0145471284253848E-06
  2.4502764209325654E+00  1.9649181418313308E-01  1.9870667382071451E-06
  2.4746877922438264E+00  1.9606589320647538E-01  1.9599176262224324E-06
  2.4993423667480874E+00  1.9556184949477942E-01  1.9330971822979133E-06
  2.5242425674060334E+00  1.9497558415292873E-01  1.9066027834456964E-06
  2.5493908413175896E+00  2.1700015763016869E-03  1.8804317921263099E-06
  2.5747896599624061E+00  3.4396984221903563E-04  1.8545815663390087E-06
  2.6004415194427413E+00  1.8459312926480216E-04  1.8290494798317796E-06
  2.6263489407287759E+00  1.2507522528305820E-04  1.8038329431520775E-06
  2.6525144699063659E+00  9.3952661766166101E-05  1.7789294171537357E-06
  2.6789406784272543E+00  7.4821701161616256E-05  1.7543364124148425E-06
  2.7056301633617910E+00  6.1874697137049190E-05  1.7300514562813300E-06
  2.7325855476541623E+00  5.2533518811283587E-05  1.7060720639903355E-06
  2.7598094803801647E+00  4.5478548341875874E-05  1.6823957371274093E-06
  2.7873046370075376E+00  3.9964203506815280E-05  1.6590199646293079E-06
  2.8150737196589124E+00  3.5537382302138963E-05  1.6359422238964362E-06
  2.8431194573773597E+00  3.1906831685229016E-05  1.6131599822868494E-06
  2.8714446063945873E+00  2.8876793465979684E-05  1.5906706969202925E-06
  2.9000519504018150E+00  2.6310823630183705E-05  1.5684718478726101E-06
  2.9289443008233507E+00  2.4110904625120277E-05  1.5465611219794672E-06
  2.9581244970928768E+00  2.2204805934558354E-05  1.5249368363551156E-06
  2.9875954069325061E+00  2.0538130291907379E-05  1.5035985579594917E-06
  3.0173599266346098E+00  1.9069153933981383E-05  1.4825477293322459E-06
  3.0474209813464577E+00  1.7765381537472691E-05  1.4617872917892262E-06
  3.0777815253576772E+00  1.6601094559413081E-05  1.4413202055152830E-06
  3.1084445423906089E+00  1.5555655252227178E-05  1.4211491342893913E-06
  3.1394130458935261E+00  1.4612309359915992E-05  1.4012764549484115E-06
  3.1706900793367816E+00  1.3757312392141124E-05  1.3817042677604356E-06
  3.2022787165119149E+00  1.2979281772857775E-05  1.3624344067435009E-06
  3.2341820618337356E+00  1.2268709537575013E-05  1.3434684502396265E-06
  3.2664032506454035E+00  1.1617590976973031E-05  1.3248077214738255E-06
  3.2989454495265682E+00  1.1019138153027276E-05  1.3064532201585788E-06
  3.3318118566045656E+00  1.0467556167799313E-05  1.2884054127821644E-06
  3.3650057018687214E+00  9.9578658652625185E-06  1.2706638748145861E-06
  3.3985302474877686E+00  9.4857586712917999E-06  1.2532268606618351E-06
  3.4323887881304613E+00  9.0474726792159687E-06  1.2360912128816982E-06
  3.4665846512893519E+00  8.6397163392774343E-06  1.2192533169522370E-06
  3.5011211976078043E+00  8.2596069935360685E-06  1.2027095642837163E-06
  3.5360018212102640E+00  7.9046097031808879E-06  1.1864563650466156E-06
  3.5712299500358320E+00  7.5724864443004454E-06  1.1704901499226023E-06
  3.6068090461751345E+00  7.2612539589254922E-06  1.1548073716580397E-06
  3.6427426062105717E+00  6.9691485826604817E-06  1.1394045013929388E-06
  3.6790341615599536E+00  6.6945967527571377E-06  1.1242780337751224E-06
  3.7156872788235487E+00  6.4361903892571212E-06  1.1094246623148610E-06
  3.7527055601345896E+00  6.1926669788247309E-06  1.0948419116368055E-06
  3.7900926435132942E+00  5.9628951398182918E-06  1.0805293702226406E-06
  3.8278522032243876E+00  5.7458696977111858E-06  1.0664903859640180E-06
  3.8659879501381913E+00  5.5407268871969402E-06  1.0527334111471786E-06
  3.9045036320953175E+00  5.3467209410477214E-06  1.0392694148026676E-06
  3.9434030342750015E+00  5.1631718151364544E-06  1.0261089759122173E-06
  3.9826899795670796E+00  4.9894544809006081E-06  1.0132620978684539E-06
  4.0223683289476968E+00  4.8249934275303150E-06  1.0007382511106870E-06
  4.0624419818587540E+00  4.6692578574972535E-06  9.8854641714881762E-07
  4.1029148765911279E+00  4.5217574758301826E-06  9.7669513491359770E-07
  4.1437909906716950E+00  4.3820387896959635E-06  9.6519255025705900E-07
  4.1850743412542579E+00  4.2496817536068283E-06  9.5404639642382675E-07
  4.2267689855143171E+00  4.1242963372826619E-06  9.4326369527355284E-07
  4.2688790210477974E+00  4.0055181960559164E-06  9.3284998889478395E-07
  4.3114085862737443E+00  3.8930014883621415E-06  9.2280808904737878E-07
  4.3543618608410419E+00  3.7864029994550607E-06  9.1313663142714314E-07
  4.3977430660391628E+00  3.6853747139473246E-06  9.0383087279636651E-07
  4.4415564652130186E+00  3.5895892346096024E-06  8.9488578902218412E-07
  4.4858063641819630E+00  3.4987442941730662E-06  8.8629666942080796E-07
  4.5304971116629327E+00  3.4125605592077305E-06  8.7805911721318415E-07
  4.5756330996978285E+00  3.3307796512123646E-06  8.7016904952799069E-07
  4.6212187640851594E+00  3.2531623726274197E-06  8.6262270008943279E-07
  4.6672585848159658E+00  3.1794871225928018E-06  8.5541663192493084E-07
  4.7137570865140956E+00  3.1095484427393096E-06  8.4854772608953225E-07
  4.7607188388808712E+00  3.0431554929015931E-06  8.4201301988910777E-07
  4.8081484571441901E+00  2.9801300420299519E-06  8.3580923498563797E-07
  4.8560506025120782E+00  2.9203030808685234E-06  8.2993190521094519E-07
  4.9044299826307833E+00  2.8635074820619025E-06  8.2437414816235560E-07
  4.9532913520474287E+00  2.8095689518862263E-06  8.1912620160270840E-07
  5.0026395126772742E+00  2.7583179470610566E-06  8.1417769164147525E-07
  5.0524793142756064E+00  2.7095967056454438E-06  8.0951863471634474E-07
  5.1028156549143935E+00  2.6632583958869751E-06  8.0513942626367300E-07
  5.1536534814636257E+00  2.6191661881416586E-06  8.0103081194087361E-07
  5.2049977900774689E+00  2.5771924138635924E-06  7.9718386007153635E-07
  5.2568536266852899E+00  2.5372178050203277E-06  7.9358993757202860E-07
  5.3092260874875441E+00  2.4991307962539572E-06  7.9024068145541578E-07
  5.3621203194565910E+00  2.4628267077538000E-06  7.8712783156303540E-07
  5.4155415208425524E+00  2.4282062692424421E-06  7.8424262223731404E-07
  5.4694949416841654E+00  2.3951723006881701E-06  7.8157441226545588E-07
  5.5239858843247047E+00  2.3636214686305970E-06  7.7910835606259670E-07
  5.5790197039331497E+00  2.3334278060431396E-06  7.7682297285066897E-07
  5.6346018090303929E+00  2.3044516835649005E-06  7.7469310506732085E-07
  5.6907376620207994E+00  2.2765592124108726E-06  7.7269339444363160E-07
  5.7474327797290750E+00  2.2496231283995108E-06  7.7079846964318012E-07
  5.8046927339423560E+00  2.2235222285753142E-06  7.6898290893677070E-07
  5.8625231519578529E+00  2.1981408864580344E-06  7.6722121250233184E-07
  5.9209297171358566E+00  2.1733686392398408E-06  7.6548778438499613E-07
  5.9799181694582577E+00  2.1490998410366922E-06  7.6375692411197777E-07
  6.0394943060926893E+00  2.1252334195633275E-06  7.6200286272088272E-07
  6.0996639819622303E+00  2.1016729280078086E-06  7.6019997708478732E-07
  6.1604331103207919E+00  2.0783273589828958E-06  7.5832338478296435E-07
  6.2218076633342800E+00  2.0551138628257514E-06  7.5635012462364176E-07
  6.2837936726675103E+00  2.0319648790480640E-06  7.5426091148674992E-07
  6.3463972300769473E+00  2.0088295347656792E-06  7.5203977707027540E-07
  6.4096244880094240E+00  1.9856617400971543E-06  7.4967134186765789E-07
  6.4734816602067617E+00  1.9624177787823848E-06  7.4714037170090190E-07
  6.5379750223164148E+00  1.9390563138898928E-06  7.4443182047103951E-07
  6.6031109125082539E+00  1.9155384049649375E-06  7.4153087642853334E-07
  6.6688957320974449E+00  1.8918275337137115E-06  7.3842301137843911E-07
  6.7353359461735112E+00  1.8678896309003710E-06  7.3509402697024680E-07
  6.8024380842357814E+00  1.8436931399193141E-06  7.3153013008479163E-07
  6.8702087408349914E+00  1.8192093051282070E-06  7.2771818094289508E-07
  6.9386545762214125E+00  1.7944131761546198E-06  7.2364638483318752E-07
  7.0077823169994407E+00  1.7692865124612958E-06  7.1930578772886843E-07
  7.0775987567885714E+00  1.7438256183806300E-06  7.1469290229392096E-07
  7.1481107568911266E+00  1.7180492892298480E-06  7.0981106060445897E-07
  7.2193252469665339E+00  1.6919839645878099E-06  7.0466591723177175E-07
