 #p(MeV) \t \delta f_\\nu \t \delta f_\\nubar
  7.5574544271725603E+00  2.7568056480819170E-12  2.6400176079865287E-12
  7.6327470858349002E+00  2.7147705294701168E-12  2.5988263945254171E-12
  7.7087898627418205E+00  2.6734492446157708E-12  2.5583382006374064E-12
  7.7855902310971041E+00  2.6328284307695816E-12  2.5185398285130027E-12
  7.8631557385578112E+00  2.5928954379171133E-12  2.4794187745466441E-12
  7.9414940079760692E+00  2.5536379100855923E-12  2.4409628246294253E-12
  8.0206127381481878E+00  2.5150437245158403E-12  2.4031599954182345E-12
  8.1005197045712869E+00  2.4771009861380481E-12  2.3659985289006552E-12
  8.1812227602074454E+00  2.4397980224711330E-12  2.3294668873693471E-12
  8.2627298362554438E+00  2.4031233789130061E-12  2.2935537487738988E-12
  8.3450489429302355E+00  2.3670658143910612E-12  2.2582480024200559E-12
  8.4281881702501469E+00  2.3316142973442042E-12  2.2235387449882336E-12
  8.5121556888319283E+00  2.2967580020094536E-12  2.1894152768448986E-12
  8.5969597506937596E+00  2.2624863049878759E-12  2.1558670986221006E-12
  8.6826086900661910E+00  2.2287887820664209E-12  2.1228839080422273E-12
  8.7691109242112404E+00  2.1956554526110442E-12  2.0904558343042495E-12
  8.8564749542495722E+00  2.1630777511445748E-12  2.0585743695451153E-12
  8.9447093659959780E+00  2.1310475967075935E-12  2.0272314743233752E-12
  9.0338228308031638E+00  2.0995569828110454E-12  1.9964191838787964E-12
  9.1238241064139185E+00  2.0685979778244974E-12  1.9661296085193662E-12
  9.2147220378218169E+00  2.0381627256129152E-12  1.9363549342441173E-12
  9.3065255581404465E+00  2.0082434462383395E-12  1.9070874234251869E-12
  9.3992436894813345E+00  1.9788324367155203E-12  1.8783194155384740E-12
  9.4928855438406270E+00  1.9499220718115958E-12  1.8500433279331279E-12
  9.5874603239945309E+00  1.9215048048804345E-12  1.8222516566309007E-12
  9.6829773244037955E+00  1.8935731687232499E-12  1.7949369771470415E-12
  9.7794459321270804E+00  1.8661197764675598E-12  1.7680919453251176E-12
  9.8768756277435035E+00  1.8391372355521874E-12  1.7417092150728528E-12
  9.9752759862843732E+00  1.8126170054194187E-12  1.7157803476453241E-12
  1.0074656678174156E+01  1.7865497972313406E-12  1.6902961959102393E-12
  1.0175027470180879E+01  1.7609265136976865E-12  1.6652478023643741E-12
  1.0276398226375948E+01  1.7357382660725826E-12  1.6406264151782101E-12
  1.0378778909103561E+01  1.7109763687001159E-12  1.6164234828166178E-12
  1.0482179579959791E+01  1.6866323337886801E-12  1.5926306488825602E-12
  1.0586610400781357E+01  1.6626978664019789E-12  1.5692397471719409E-12
  1.0692081634644348E+01  1.6391648596553685E-12  1.5462427969284935E-12
  1.0798603646872785E+01  1.6160253901066894E-12  1.5236319982880243E-12
  1.0906186906057323E+01  1.5932717133314115E-12  1.5013997279020853E-12
  1.1014841985084066E+01  1.5708962596724214E-12  1.4795385347314957E-12
  1.1124579562173608E+01  1.5488916307899200E-12  1.4580411366698739E-12
  1.1235410421930457E+01  1.5272507009709872E-12  1.4369005183279466E-12
  1.1347345456402929E+01  1.5059666921717390E-12  1.4161100017333337E-12
  1.1460395666153540E+01  1.4850329857088174E-12  1.3956630654690274E-12
  1.1574572161340145E+01  1.4644430986813696E-12  1.3755533221311341E-12
  1.1689886162807753E+01  1.4441906806817099E-12  1.3557745150903641E-12
  1.1806349003191320E+01  1.4242695106686551E-12  1.3363205154109936E-12
  1.1923972128029442E+01  1.4046734939936749E-12  1.3171853189176904E-12
  1.2042767096889190E+01  1.3853966595705774E-12  1.2983630434010805E-12
  1.2162745584502161E+01  1.3664331571800015E-12  1.2798479259534964E-12
  1.2283919381911801E+01  1.3477772549004001E-12  1.2616343204268040E-12
  1.2406300397632192E+01  1.3294233366577885E-12  1.2437166950047053E-12
  1.2529900658818395E+01  1.3113658999043847E-12  1.2260896298984069E-12
  1.2654732312448406E+01  1.2935997558216734E-12  1.2087480049795876E-12
  1.2780807626516946E+01  1.2761206116232962E-12  1.1916875464681467E-12
  1.2908138991241078E+01  1.2589244258201994E-12  1.1749042198144704E-12
  1.3036738920277918E+01  1.2420071972070144E-12  1.1583940308198794E-12
  1.3166620051954387E+01  1.2253649650173594E-12  1.1421530257796586E-12
  1.3297795150509280E+01  1.2089938090953650E-12  1.1261772916400256E-12
  1.3430277107347699E+01  1.1928898500796322E-12  1.1104629561654299E-12
  1.3564078942307949E+01  1.1770492495969256E-12  1.0950061881135423E-12
  1.3699213804941088E+01  1.1614682104631421E-12  1.0798031974155165E-12
  1.3835694975803236E+01  1.1461429768892318E-12  1.0648502353593274E-12
  1.3973535867760699E+01  1.1310698346900142E-12  1.0501435947741710E-12
  1.4112750027308188E+01  1.1162451114939662E-12  1.0356796102140283E-12
  1.4253351135900054E+01  1.1016651371305630E-12  1.0214546212947516E-12
  1.4395353011294926E+01  1.0873258803199334E-12  1.0074646356297841E-12
  1.4538769608913606E+01  1.0732231361294984E-12  9.9370550335055146E-13
  1.4683615023210574E+01  1.0593527736031372E-12  9.8017314777473375E-13
  1.4829903489059175E+01  1.0457107378340649E-12  9.6686356727137812E-13
  1.4977649383150515E+01  1.0322930485173924E-12  9.5377283382895801E-13
  1.5126867225406375E+01  1.0190957985440429E-12  9.4089709166344892E-13
  1.5277571680406199E+01  1.0061151526343630E-12  9.2823255586475723E-13
  1.5429777558828221E+01  9.9334734600977634E-13  9.1577551107992980E-13
  1.5583499818905059E+01  9.8078868310093269E-13  9.0352231023159479E-13
  1.5738753567893704E+01  9.6843553629091045E-13  8.9146937327022093E-13
  1.5895554063560265E+01  9.5628434469204717E-13  8.7961318595881747E-13
  1.6053916715679382E+01  9.4433160431198529E-13  8.6795029067031532E-13
  1.6213857087548675E+01  9.3257348784412019E-13  8.5647693447563326E-13
  1.6375390897518269E+01  9.2100572095618993E-13  8.4518895619671214E-13
  1.6538534020535483E+01  9.0962409940910432E-13  8.3408226566560517E-13
  1.6703302489704999E+01  8.9842452620522811E-13  8.2315287793299840E-13
  1.6869712497864544E+01  8.8740300852700412E-13  8.1239691026715224E-13
  1.7037780399176210E+01  8.7655565478119499E-13  8.0181057925595434E-13
  1.7207522710733755E+01  8.6587867174473024E-13  7.9139019800811843E-13
  1.7378956114185765E+01  8.5536836180826131E-13  7.8113217344971689E-13
  1.7552097457375140E+01  8.4502112031371781E-13  7.7103300371241265E-13
  1.7726963755994781E+01  8.3483343298232022E-13  7.6108927560986357E-13
  1.7903572195259830E+01  8.2480187342960867E-13  7.5129766219897119E-13
  1.8081940131596639E+01  8.1492310080540149E-13  7.4165492046109589E-13
  1.8262085094348407E+01  8.0519409033449306E-13  7.3215810254146083E-13
  1.8444024787497931E+01  7.9561264893976155E-13  7.2280502698598278E-13
  1.8627777091407538E+01  7.8617676951526550E-13  7.1359368480673062E-13
  1.8813360064576205E+01  7.7688446745662079E-13  7.0452208941431586E-13
  1.9000791945414392E+01  7.6773378064299086E-13  6.9558827658974640E-13
  1.9190091154036331E+01  7.5872276941729020E-13  6.8679030445383912E-13
  1.9381276294070396E+01  7.4984951656442424E-13  6.7812625343399287E-13
  1.9574366154487308E+01  7.4111212728739156E-13  6.6959422622817155E-13
  1.9769379711446696E+01  7.3250872918108644E-13  6.6119234776595326E-13
  1.9966336130162013E+01  7.2403747220371278E-13  6.5291876516652808E-13
  2.0165254766783981E+01  7.1569652864567221E-13  6.4477164769354543E-13
  2.0366155170302861E+01  7.0748409309585379E-13  6.3674918670672645E-13
  2.0569057084469684E+01  6.9939833805062428E-13  6.2884955513535447E-13
  2.0773980449736534E+01  6.9143706924141006E-13  6.2107059377909111E-13
  2.0980945405216300E+01  6.8359793270008462E-13  6.1341000136036870E-13
  2.1189972290661782E+01  6.7587862414510062E-13  6.0586552547776927E-13
  2.1401081648464700E+01  6.6827688952431147E-13  5.9843496300938982E-13
  2.1614294225674453E+01  6.6079052377764047E-13  5.9111615889852833E-13
  2.1829630976037080E+01  6.5341736963584788E-13  5.8390700497466882E-13
  2.2047113062054567E+01  6.4615531645425136E-13  5.7680543880861138E-13
  2.2266761857064548E+01  6.3900229908024818E-13  5.6980944260063623E-13
  2.2488598947340815E+01  6.3195629675352486E-13  5.6291704210060367E-13
  2.2712646134214804E+01  6.2501533203793712E-13  5.5612630555896013E-13
  2.2938925436218046E+01  6.1817746978400116E-13  5.4943534270766010E-13
  2.3167459091246133E+01  6.1144081336947934E-13  5.4284230144441391E-13
  2.3398269558744172E+01  6.0480345405403458E-13  5.3634532580899199E-13
  2.3631379521914010E+01  5.9826347977790044E-13  5.2994256418549119E-13
  2.3866811889943431E+01  5.9181901893639628E-13  5.2363220496323798E-13
  2.4104589800257600E+01  5.8546824055715273E-13  5.1741247643296251E-13
  2.4344736620792979E+01  5.7920935332394132E-13  5.1128164583190471E-13
  2.4587275952293744E+01  5.7304060462854182E-13  5.0523801841620076E-13
  2.4832231630631231E+01  5.6696027964971177E-13  4.9927993655962442E-13
  2.5079627729146473E+01  5.6096670045841830E-13  4.9340577887786340E-13
  2.5329488561015975E+01  5.5505822514848381E-13  4.8761395937748926E-13
  2.5581838681641131E+01  5.4923324699183677E-13  4.8190292662882936E-13
  2.5836702891061488E+01  5.4349019361758724E-13  4.7627116296196807E-13
  2.6094106236391983E+01  5.3782752637778657E-13  4.7071718382396688E-13
  2.6354074014284429E+01  5.3224377357532742E-13  4.6523956495739204E-13
  2.6616631773413623E+01  5.2673756435602471E-13  4.5983696889260298E-13
  2.6881805316988213E+01  5.2130756371900435E-13  4.5450809172535762E-13
  2.7149620705286452E+01  5.1595246367880956E-13  4.4925165605487754E-13
  2.7420104258217350E+01  5.1067098264221550E-13  4.4406641037246662E-13
  2.7693282557907359E+01  5.0546186480204558E-13  4.3895112846673950E-13
  2.7969182451312651E+01  5.0032387954746697E-13  4.3390460884497840E-13
  2.8247831052857588E+01  4.9525582089026275E-13  4.2892567417009742E-13
  2.8529255747099487E+01  4.9025650690658347E-13  4.2401317071273787E-13
  2.8813484191419807E+01  4.8532477919372475E-13  4.1916596781805024E-13
  2.9100544318742191E+01  4.8045950234146707E-13  4.1438295738669160E-13
  2.9390464340277664E+01  4.7565956341753390E-13  4.0966305336962114E-13
  2.9683272748297149E+01  4.7092387974859660E-13  4.0500519886381852E-13
  2.9978998318931492E+01  4.6625145833905584E-13  4.0040841976971079E-13
  3.0277670114999534E+01  4.6164135684104308E-13  3.9587178897056999E-13
  3.0579317488864344E+01  4.5709264889709939E-13  3.9139439503885046E-13
  3.0883970085317749E+01  4.5260442365873208E-13  3.8697534178026447E-13
  3.1191657844493765E+01  4.4817578551324854E-13  3.8261374796326213E-13
  3.1502411004811066E+01  4.4380585381596353E-13  3.7830874705376599E-13
  3.1816260105944625E+01  4.3949376262768644E-13  3.7405948695506638E-13
  3.2133235991827050E+01  4.3523866045734862E-13  3.6986512975274098E-13
  3.2453369813679821E+01  4.3103971000967864E-13  3.6572485146451096E-13
  3.2776693033074771E+01  4.2689608793781360E-13  3.6163784179491584E-13
  3.3103237425025924E+01  4.2280698460074273E-13  3.5760330389470413E-13
  3.3433035081112244E+01  4.1877159826414730E-13  3.5362044929801746E-13
  3.3766118412631585E+01  4.1478900768803216E-13  3.4968838785054618E-13
  3.4102520153785790E+01  4.1085817540113921E-13  3.4580613144769016E-13
  3.4442273364897780E+01  4.0697808128778066E-13  3.4197270976766735E-13
  3.4785411435660620E+01  4.0314772825293158E-13  3.3818717510138413E-13
  3.5131968088418908E+01  3.9936614165134311E-13  3.3444860179654885E-13
  3.5481977381482835E+01  3.9563236873438187E-13  3.3075608571878733E-13
  3.5835473712475363E+01  3.9194547811398172E-13  3.2710874372916613E-13
  3.6192491821712714E+01  3.8830455924315469E-13  3.2350571317756503E-13
  3.6553066795618477E+01  3.8470872191249334E-13  3.1994615141135124E-13
  3.6917234070171759E+01  3.8115709576213557E-13  3.1642923529882580E-13
  3.7285029434389791E+01  3.7764882980867776E-13  3.1295416076693492E-13
  3.7656489033845041E+01  3.7418309209752098E-13  3.0952014246000488E-13
  3.8031649374217480E+01  3.7075912461673485E-13  3.0612646129343132E-13
  3.8410547324882316E+01  3.6737632140504781E-13  3.0277253085697352E-13
  3.8793220122533327E+01  3.6403410693208288E-13  2.9945779204559592E-13
  3.9179705374842221E+01  3.6073191489372040E-13  2.9618169484220806E-13
  3.9570041064154807E+01  3.5746918805004681E-13  2.9294369815848424E-13
  3.9964265551223640E+01  3.5424537806949917E-13  2.8974326968115334E-13
  4.0362417578977926E+01  3.5105994537896075E-13  2.8657988572351100E-13
  4.0764536276331100E+01  3.4791235901957202E-13  2.8345303108192118E-13
  4.1170661162026327E+01  3.4480209650802211E-13  2.8036219889707576E-13
  4.1580832148520123E+01  3.4172864370311069E-13  2.7730689051979022E-13
  4.1995089545904882E+01  3.3869149467736968E-13  2.7428661538113495E-13
  4.2413474065870417E+01  3.3569015159353133E-13  2.7130089086668509E-13
  4.2836026825704977E+01  3.3272413071254372E-13  2.6834924613507632E-13
  4.3262789352335936E+01  3.2979297437465626E-13  2.6543122766995455E-13
  4.3693803586411128E+01  3.2689623377426578E-13  2.6254638870980639E-13
  4.4129111886420525E+01  3.2403346714864141E-13  2.5969428935063257E-13
  4.4568757032859004E+01  3.2120423967220846E-13  2.5687449643909699E-13
  4.5012782232430745E+01  3.1840812332751328E-13  2.5408658344610720E-13
  4.5461231122295445E+01  3.1564469678229336E-13  2.5133013034573485E-13
  4.5914147774356728E+01  3.1291354527239381E-13  2.4860472349920889E-13
  4.6371576699593405E+01  3.1021426049028204E-13  2.4590995554374460E-13
  4.6833562852433893E+01  3.0754644047892376E-13  2.4324542528596077E-13
  4.7300151635174188E+01  3.0490968953080876E-13  2.4061073759967081E-13
  4.7771388902439618E+01  3.0230361809188574E-13  2.3800550332781499E-13
  4.8247320965691607E+01  2.9972783644434880E-13  2.3542933452543843E-13
  4.8727994597778761E+01  2.9718187223497348E-13  2.3288178291134716E-13
  4.9213457037533551E+01  2.9466519602367449E-13  2.3036235983455683E-13
  4.9703755994414834E+01  2.9217728760941627E-13  2.2787058616088774E-13
  5.0198939653196589E+01  2.8971763741357316E-13  2.2540599325435554E-13
  5.0699056678703222E+01  2.8728574624469817E-13  2.2296812274852573E-13
  5.1204156220592246E+01  2.8488112507205058E-13  2.2055652632572378E-13
  5.1714287918184532E+01  2.8250329480754530E-13  2.1817076550377945E-13
  5.2229501905342744E+01  2.8015178609582243E-13  2.1581041142998354E-13
  5.2749848815398018E+01  2.7782613911211860E-13  2.1347504468196333E-13
  5.3275379786126408E+01  2.7552590336765437E-13  2.1116425507517204E-13
  5.3806146464774308E+01  2.7325063752225364E-13  2.0887764147671764E-13
  5.4342201013134158E+01  2.7099990995484488E-13  2.0661481217595759E-13
  5.4883596112670695E+01  2.6877336219122156E-13  2.0437543139177610E-13
  5.5430384969698444E+01  2.6657075484912119E-13  2.0215925223157851E-13
  5.5982621320610448E+01  2.6439186281070034E-13  1.9996603884402687E-13
  5.6540359437159367E+01  2.6223646343495126E-13  1.9779555768511170E-13
  5.7103654131791160E+01  2.6010433652916830E-13  1.9564757748889129E-13
  5.7672560763031804E+01  2.5799526432317393E-13  1.9352186924043198E-13
  5.8247135240927577E+01  2.5590903144617748E-13  1.9141820615081886E-13
  5.8827434032539983E+01  2.5384542490614222E-13  1.8933636363410991E-13
  5.9413514167494945E+01  2.5180423407153368E-13  1.8727611928610514E-13
  6.0005433243587461E+01  2.4978525065534957E-13  1.8523725286482237E-13
  6.0603249432442105E+01  2.4778826870130419E-13  1.8321954627255560E-13
  6.1207021485230072E+01  2.4581308457207740E-13  1.8122278353941422E-13
  6.1816808738442802E+01  2.4385947791119944E-13  1.7924673692991191E-13
  6.2432671119723445E+01  2.4192714473458013E-13  1.7729111816999130E-13
  6.3054669153756421E+01  2.4001576188845145E-13  1.7535562627989084E-13
  6.3682863968215521E+01  2.3812501249041055E-13  1.7343996639940400E-13
  6.4317317299771062E+01  2.3625458580553369E-13  1.7154384966413352E-13
  6.4958091500157536E+01  2.3440417712151852E-13  1.6966699308148270E-13
  6.5605249542301124E+01  2.3257348762794489E-13  1.6780911941032637E-13
  6.6258855026508343E+01  2.3076222429949969E-13  1.6596995704421069E-13
  6.6918972186716545E+01  2.2897009978304446E-13  1.6414923989795487E-13
  6.7585665896806717E+01  2.2719683228839245E-13  1.6234670729752211E-13
  6.8259001676978798E+01  2.2544214548267300E-13  1.6056210387303661E-13
  6.8939045700190889E+01  2.2370576838816341E-13  1.5879517945482275E-13
  6.9625864798662633E+01  2.2198744019370963E-13  1.5704569261547444E-13
  7.0319526470442923E+01  2.2028697372215828E-13  1.5531345762280669E-13
  7.1020098886043570E+01  2.1860423491857345E-13  1.5359832855511480E-13
  7.1727650895138893E+01  2.1693909198970520E-13  1.5190016123638931E-13
  7.2442252033331869E+01  2.1529141419169900E-13  1.5021881232695563E-13
  7.3163972528987898E+01  2.1366107183720368E-13  1.4855413932576674E-13
  7.3892883310136540E+01  2.1204793630283005E-13  1.4690600057280813E-13
  7.4629056011442216E+01  2.1045188003694842E-13  1.4527425525159566E-13
  7.5372562981244002E+01  2.0887277656781065E-13  1.4365876339175034E-13
  7.6123477288665796E+01  2.0731050051198384E-13  1.4205938587163001E-13
  7.6881872730797483E+01  2.0576492758308607E-13  1.4047598442100266E-13
  7.7647823839947250E+01  2.0423593460081003E-13  1.3890842162374814E-13
  7.8421405890966199E+01  2.0272339926402873E-13  1.3735656073663934E-13
  7.9202694908646450E+01  2.0122717841454730E-13  1.3582024943353869E-13
  7.9991767675192463E+01  1.9974709203667345E-13  1.3429930832190563E-13
  8.0788701737766544E+01  1.9828295928308095E-13  1.3279355796146354E-13
  8.1593575416110454E+01  1.9683460246058867E-13  1.3130282180018077E-13
  8.2406467810242134E+01  1.9540184698454810E-13  1.2982692612330668E-13
  8.3227458808229088E+01  1.9398452133455413E-13  1.2836570000347485E-13
  8.4056629094039991E+01  1.9258245701144798E-13  1.2691897525183590E-13
  8.4894060155473809E+01  1.9119548849560063E-13  1.2548658637019955E-13
  8.5739834292167671E+01  1.8982345320644603E-13  1.2406837050415346E-13
  8.6594034623686085E+01  1.8846619146324415E-13  1.2266416739712779E-13
  8.7456745097688326E+01  1.8712354644706284E-13  1.2127381934538988E-13
  8.8328050498179095E+01  1.8579536416366307E-13  1.1989717115377010E-13
  8.9208036453841387E+01  1.8448149988382653E-13  1.1853407478813721E-13
  9.0096789446450458E+01  1.8318183965799316E-13  1.1718440461526069E-13
  9.0994396819374018E+01  1.8189627878627777E-13  1.1584804166855957E-13
  9.1900946786155643E+01  1.8062471397584802E-13  1.1452486802182972E-13
  9.2816528439183770E+01  1.7936704334144278E-13  1.1321476678045964E-13
  9.3741231758447981E+01  1.7812316640632095E-13  1.1191762207275841E-13
  9.4675147620381537E+01  1.7689298410361496E-13  1.1063331904137384E-13
  9.5618367806792179E+01  1.7567639877810382E-13  1.0936174383479745E-13
  9.6570985013882620E+01  1.7447331418840380E-13  1.0810278359895053E-13
  9.7533092861360146E+01  1.7328363550959332E-13  1.0685632646885105E-13
  9.8504785901636893E+01  1.7210726933627774E-13  1.0562226156035742E-13
  9.9486159629122696E+01  1.7094412368610103E-13  1.0440047896198397E-13
  1.0047731048960965E+02  1.6979410743596697E-13  1.0319086927443027E-13
  1.0147833588975010E+02  1.6865712302901183E-13  1.0199331816895049E-13
  1.0248933420663010E+02  1.6753306905368494E-13  1.0080770850453894E-13
  1.0351040479743718E+02  1.6642184587494159E-13  9.9633924450587290E-14
  1.0454164800922436E+02  1.6532335574078343E-13  9.8471851545933206E-14
  1.0558316518877317E+02  1.6423750277706671E-13  9.7321376679798450E-14
  1.0663505869255208E+02  1.6316419298311601E-13  9.6182388073036112E-14
  1.0769743189677655E+02  1.6210333422814181E-13  9.5054775259670709E-14
  1.0877038920756891E+02  1.6105483624848520E-13  9.3938429068731533E-14
  1.0985403607121779E+02  1.6001861064569274E-13  9.2833241606369683E-14
  1.1094847898454205E+02  1.5899457088544384E-13  9.1739106238249289E-14
  1.1205382550535654E+02  1.5798263229733801E-13  9.0655917572209836E-14
