 #p(MeV) \t \delta f_\\nu \t \delta f_\\nubar
  6.2120986590451805E-03  2.6826319758239786E-01  1.6400683308519575E-05
  6.2739879404718176E-03  2.6776660650646117E-01  1.6264055658861708E-05
  6.3364938063034532E-03  2.6734029770831230E-01  1.6128396154074468E-05
  6.3996223993861541E-03  2.6702707026805239E-01  1.5993702585169918E-05
  6.4633799237653108E-03  2.6668536486304883E-01  1.5859973222765505E-05
  6.5277726452953756E-03  2.6614846083844229E-01  1.5727206699352791E-05
  6.5928068922556267E-03  2.6561118012168144E-01  1.5595401866837827E-05
  6.6584890559720951E-03  2.6506208146278654E-01  1.5464557805473926E-05
  6.7248255914456921E-03  2.6461053842017029E-01  1.5334673910181419E-05
  6.7918230179865617E-03  2.6416860178611851E-01  1.5205749561431549E-05
  6.8594879198547957E-03  2.6372883463358587E-01  1.5077783451892364E-05
  6.9278269469074923E-03  2.6324612064657676E-01  1.4950772994724937E-05
  6.9968468152522868E-03  2.6279302081502220E-01  1.4824714056438084E-05
  7.0665543079073976E-03  2.6230146232914120E-01  1.4699601000018328E-05
  7.1369562754682097E-03  2.6183307393373073E-01  1.4575426905247273E-05
  7.2080596367805607E-03  2.6142444236154616E-01  1.4452183845837034E-05
  7.2798713796206624E-03  2.6097616427203657E-01  1.4329863150723225E-05
  7.3523985613818564E-03  2.6057085741327585E-01  1.4208455607829335E-05
  7.4256483097681928E-03  2.6012462842934664E-01  1.4087951699464841E-05
  7.4996278234948938E-03  2.5968759017891074E-01  1.3968341760970804E-05
  7.5743443729958402E-03  2.5925023761105975E-01  1.3849615779578978E-05
  7.6498053011380615E-03  2.5876795195790508E-01  1.3731763296003719E-05
  7.7260180239433771E-03  2.5825042060871778E-01  1.3614773764142288E-05
  7.8029900313172267E-03  2.5773203533281441E-01  1.3498637132147476E-05
  7.8807288877847173E-03  2.5725221374230672E-01  1.3383344303891072E-05
  7.9592422332340797E-03  2.5683937597606360E-01  1.3268887333583864E-05
  8.0385377836674522E-03  2.5642316859898312E-01  1.3155259394156227E-05
  8.1186233319591929E-03  2.5601888036412918E-01  1.3042454623547368E-05
  8.1995067486217519E-03  2.5551522365349810E-01  1.2930467932374629E-05
  8.2811959825791273E-03  2.5498545413795543E-01  1.2819294829027452E-05
  8.3636990619480808E-03  2.5451117317195721E-01  1.2708931232349204E-05
  8.4470240948270915E-03  2.5400742033735380E-01  1.2599373250676600E-05
  8.5311792700932011E-03  2.5355836516072150E-01  1.2490617258783865E-05
  8.6161728582067939E-03  2.5312745051941454E-01  1.2382660183391525E-05
  8.7020132120243614E-03  2.5268954674944644E-01  1.2275499563321927E-05
  8.7887087676194291E-03  2.5222537948049989E-01  1.2169133307609368E-05
  8.8762680451115773E-03  2.5184629023689514E-01  1.2063559343952724E-05
  8.9646996495038010E-03  2.5141826140339235E-01  1.1958775343073249E-05
  9.0540122715281734E-03  2.5098448526263861E-01  1.1854778585136616E-05
  9.1442146884999215E-03  2.5051785592140846E-01  1.1751565939487104E-05
  9.2353157651800400E-03  2.5002462844218487E-01  1.1649133908601092E-05
  9.3273244546464972E-03  2.4957735919352667E-01  1.1547478693946832E-05
  9.4202497991740831E-03  2.4913079914153657E-01  1.1446596264261527E-05
  9.5141009311230911E-03  2.4862148906543602E-01  1.1346482436933675E-05
  9.6088870738367648E-03  2.4819077542109882E-01  1.1247132921785167E-05
  9.7046175425477780E-03  2.4774347363625371E-01  1.1148543378623352E-05
  9.8013017452936724E-03  2.4727625386420360E-01  1.1050709630538618E-05
  9.8989491838414479E-03  2.4684965522117208E-01  1.0953627981830492E-05
  9.9975694546213870E-03  2.4640455361913877E-01  1.0857295474801523E-05
  1.0097172249670125E-02  2.4594120373926240E-01  1.0761709986311878E-05
  1.0197767357583154E-02  2.4546031901446264E-01  1.0666870171181958E-05
  1.0299364664476833E-02  2.4501728785965754E-01  1.0572775317796724E-05
  1.0401974154959926E-02  2.4459914746805428E-01  1.0479425178739109E-05
  1.0505605913114887E-02  2.4419942131293060E-01  1.0386819815434719E-05
  1.0610270123488842E-02  2.4374484811833411E-01  1.0294959472358321E-05
  1.0715977072094544E-02  2.4332378925678649E-01  1.0203844492697599E-05
  1.0822737147421194E-02  2.4284403016047157E-01  1.0113475227628801E-05
  1.0930560841455408E-02  2.4234057951067395E-01  1.0023851758762753E-05
  1.1039458750712338E-02  2.4185860442588436E-01  9.9349733905413540E-06
  1.1149441577277040E-02  2.4138704823560683E-01  9.8468381147133426E-06
  1.1260520129856238E-02  2.4105554565794499E-01  9.7594422871568644E-06
  1.1372705324840584E-02  2.4061966432694401E-01  9.6727806056346985E-06
  1.1486008187377448E-02  2.4016536735783622E-01  9.5868463219099421E-06
  1.1600439852454469E-02  2.3963761201179778E-01  9.5016315633558776E-06
  1.1716011565993808E-02  2.3919931380703432E-01  9.4171276617342212E-06
  1.1832734685957419E-02  2.3866441942983141E-01  9.3333254344386036E-06
  1.1950620683463213E-02  2.3825854664704310E-01  9.2502154038831742E-06
  1.2069681143912417E-02  2.3781425267244891E-01  9.1677879631215520E-06
  1.2189927768128167E-02  2.3734033071688132E-01  9.0860335356818023E-06
  1.2311372373505380E-02  2.3692425613212947E-01  9.0049428957115909E-06
  1.2434026895172147E-02  2.3651539189613185E-01  8.9245076488855641E-06
  1.2557903387162691E-02  2.3614368761842047E-01  8.8447206502326024E-06
  1.2683014023601946E-02  2.3568734265129565E-01  8.7655761786447515E-06
  1.2809371099902041E-02  2.3524421649031610E-01  8.6870698482486907E-06
  1.2936987033970589E-02  2.3477699151467382E-01  8.6091983540699906E-06
  1.3065874367431132E-02  2.3432878800588922E-01  8.5319591681287811E-06
  1.3196045766855643E-02  2.3389330029240271E-01  8.4553502647962927E-06
  1.3327514025009351E-02  2.3342530918194498E-01  8.3793699080188908E-06
  1.3460292062108015E-02  2.3301986242048786E-01  8.3040165006979066E-06
  1.3594392927087607E-02  2.3257715043929575E-01  8.2292884762613286E-06
  1.3729829798886754E-02  2.3213750258418109E-01  8.1551841887765243E-06
  1.3866615987741929E-02  2.3166198697777762E-01  8.0817016718423479E-06
  1.4004764936495476E-02  2.3121330951414806E-01  8.0088382796123243E-06
  1.4144290221916796E-02  2.3075313306396292E-01  7.9365904617643672E-06
  1.4285205556036544E-02  2.3031799382602713E-01  7.8649538196218513E-06
  1.4427524787494272E-02  2.2989342021195613E-01  7.7939233827408086E-06
  1.4571261902899368E-02  2.2948797172978838E-01  7.7234939495835166E-06
  1.4716431028205617E-02  2.2910356496211265E-01  7.6536603658079799E-06
  1.4863046430099490E-02  2.2866983675856434E-01  7.5844176946727354E-06
  1.5011122517402166E-02  2.2822645342770440E-01  7.5157612904211813E-06
  1.5160673842485591E-02  2.2776101094735701E-01  7.4476868059572939E-06
  1.5311715102702675E-02  2.2725886226105613E-01  7.3801901705247799E-06
  1.5464261141831625E-02  2.2679256728851824E-01  7.3132675746655843E-06
  1.5618326951534802E-02  2.2630359264320535E-01  7.2469155489132329E-06
  1.5773927672831988E-02  2.2588526515151242E-01  7.1811311442295316E-06
  1.5931078597588449E-02  2.2547254957573112E-01  7.1159119892953241E-06
  1.6089795170017705E-02  2.2503239922409923E-01  7.0512560735910400E-06
  1.6250092988199356E-02  2.2468491662073928E-01  6.9871613363804738E-06
  1.6411987805612038E-02  2.2425016673806730E-01  6.9236252465708752E-06
  1.6575495532681554E-02  2.2382674334151537E-01  6.8606445239684719E-06
  1.6740632238344516E-02  2.2339947135924179E-01  6.7982150426883114E-06
  1.6907414151627585E-02  2.2295979720386574E-01  6.7363318743859306E-06
  1.7075857663242315E-02  2.2249773729698202E-01  6.6749894101464647E-06
  1.7245979327196060E-02  2.2203846885369352E-01  6.6141815078236659E-06
  1.7417795862418765E-02  2.2163790122904914E-01  6.5539016269630907E-06
  1.7591324154406101E-02  2.2120435212654255E-01  6.4941428974777082E-06
  1.7766581256878869E-02  2.2074998749750949E-01  6.4348980992748283E-06
  1.7943584393458986E-02  2.2028744810228590E-01  6.3761597178892282E-06
  1.8122350959362189E-02  2.1984630956160281E-01  6.3179202344375023E-06
  1.8302898523107521E-02  2.1944462384148902E-01  6.2601725981646358E-06
  1.8485244828243926E-02  2.1901711239334490E-01  6.2029107030859441E-06
  1.8669407795094056E-02  2.1863846413955507E-01  6.1461297011649499E-06
  1.8855405522515342E-02  2.1823920350637444E-01  6.0898260871747802E-06
  1.9043256289678723E-02  2.1781724280617604E-01  6.0339976023707909E-06
  1.9232978557865075E-02  2.1732573764886198E-01  5.9786430369082604E-06
  1.9424590972279485E-02  2.1680340304148188E-01  5.9237619999870727E-06
  1.9618112363883639E-02  2.1631253018126359E-01  5.8693547035006877E-06
  1.9813561751246447E-02  2.1586764909355916E-01  5.8154217988302616E-06
  2.0010958342413180E-02  2.1547810842784956E-01  5.7619643141980270E-06
  2.0210321536793075E-02  2.1512348374552939E-01  5.7089836200307492E-06
  2.0411670927065896E-02  2.1475494866929531E-01  5.6564812718976621E-06
  2.0615026301107432E-02  2.1434869182240102E-01  5.6044586933519645E-06
  2.0820407643934152E-02  2.1393348525417949E-01  5.5529167886574536E-06
  2.1027835139667252E-02  2.1345170200748365E-01  5.5018556182310320E-06
  2.1237329173516312E-02  2.1299094192674331E-01  5.4512742349856314E-06
  2.1448910333782670E-02  2.1258286609142840E-01  5.4011706814610730E-06
  2.1662599413882728E-02  2.1216266371057549E-01  5.3515420968831425E-06
  2.1878417414391477E-02  2.1173130164596274E-01  5.3023848774669019E-06
  2.2096385545106390E-02  2.1130977831500461E-01  5.2536948456236382E-06
  2.2316525227131786E-02  2.1086379770875066E-01  5.2054673963009206E-06
  2.2538858094984016E-02  2.1044190548653335E-01  5.1576975636641894E-06
  2.2763405998717710E-02  2.1005212546778282E-01  5.1103799883052038E-06
  2.2990191006073017E-02  2.0962679886713886E-01  5.0635088810970033E-06
  2.3219235404644368E-02  2.0920528990996351E-01  5.0170780819750978E-06
  2.3450561704070876E-02  2.0875413586562014E-01  4.9710812323765962E-06
  2.3684192638248447E-02  2.0829816229776013E-01  4.9255120081850530E-06
  2.3920151167563970E-02  2.0790076652184261E-01  4.8803643266144685E-06
  2.4158460481151806E-02  2.0746860831447508E-01  4.8356324772487531E-06
  2.4399143999172770E-02  2.0704005925439789E-01  4.7913111740624622E-06
  2.4642225375115685E-02  2.0662067291513425E-01  4.7473955464227459E-06
  2.4887728498122017E-02  2.0619022853823443E-01  4.7038810954226454E-06
  2.5135677495333655E-02  2.0580365681982765E-01  4.6607636377892861E-06
  2.5386096734263935E-02  2.0542263459652127E-01  4.6180392721476910E-06
  2.5639010825192439E-02  2.0500029189775654E-01  4.5757044140181335E-06
  2.5894444623583649E-02  2.0455395194550924E-01  4.5337558656747752E-06
  2.6152423232529590E-02  2.0410003421431358E-01  4.4921908395174680E-06
  2.6412972005216872E-02  2.0364333275445948E-01  4.4510068886063484E-06
  2.6676116547418319E-02  2.0321728051370999E-01  4.4102017582241236E-06
  2.6941882720009448E-02  2.0277631173534058E-01  4.3697732154014835E-06
  2.7210296641509917E-02  2.0236235532679217E-01  4.3297189111853409E-06
  2.7481384690650371E-02  2.0196990133442583E-01  4.2900362978081908E-06
  2.7755173508964913E-02  2.0156273219826881E-01  4.2507226001860284E-06
  2.8031690003409236E-02  2.0118506741908859E-01  4.2117748261889587E-06
  2.8310961349004991E-02  2.0077928827149710E-01  4.1731897973790119E-06
  2.8593014991510474E-02  2.0039687013880986E-01  4.1349641857729601E-06
  2.8877878650117862E-02  1.9999636289855999E-01  4.0970945321770538E-06
  2.9165580320177315E-02  1.9955897888963889E-01  4.0595772538201740E-06
  2.9456148275948318E-02  1.9912600371471800E-01  4.0224086847122933E-06
  2.9749611073378375E-02  1.9866110526442327E-01  3.9855851751221723E-06
  3.0045997552909320E-02  1.9822597745202558E-01  3.9491032361269714E-06
  3.0345336842311679E-02  1.9778394677806810E-01  3.9129596837827830E-06
  3.0647658359547303E-02  1.9738382129068402E-01  3.8771517363881979E-06
  3.0952991815660347E-02  1.9698975589980483E-01  3.8416770490581108E-06
  3.1261367217697206E-02  1.9655817490713781E-01  3.8065336922598491E-06
  3.1572814871655544E-02  1.9615586876562985E-01  3.7717200937230953E-06
  3.1887365385462649E-02  1.9570161778450074E-01  3.7372349660380279E-06
  3.2205049671983330E-02  1.9528836687609799E-01  3.7030772323507781E-06
  3.2525898952058097E-02  1.9484503784459781E-01  3.6692459612216775E-06
  3.2849944757571380E-02  1.9442752707858701E-01  3.6357403229390251E-06
  3.3177218934550286E-02  1.9406215553821327E-01  3.6025595685961730E-06
  3.3507753646294387E-02  1.9371377097611625E-01  3.5697030232413738E-06
  3.3841581376536631E-02  1.9331856317479088E-01  3.5371700783777486E-06
  3.4178734932635631E-02  1.9293826838283887E-01  3.5049601752756406E-06
  3.4519247448799910E-02  1.9250861926221846E-01  3.4730727852230417E-06
  3.4863152389344225E-02  1.9207904524538602E-01  3.4415073896081176E-06
  3.5210483551978332E-02  1.9163473791819652E-01  3.4102634618086654E-06
  3.5561275071128357E-02  1.9120327508810120E-01  3.3793404539371734E-06
  3.5915561421291577E-02  1.9077668825605598E-01  3.3487377882023647E-06
  3.6273377420424413E-02  1.9035834396008547E-01  3.3184548515167535E-06
  3.6634758233364095E-02  1.8994850488294343E-01  3.2884909912206351E-06
  3.6999739375284627E-02  1.8953253909245157E-01  3.2588455476296252E-06
  3.7368356715187144E-02  1.8912657737297858E-01  3.2295180387020804E-06
  3.7740646479424829E-02  1.8874376676247187E-01  3.2005085832973645E-06
  3.8116645255263211E-02  1.8834707639495918E-01  3.1718185205166330E-06
  3.8496389994475820E-02  1.8793245300233835E-01  3.1434510658679495E-06
  3.8879918016975705E-02  1.8754348488880426E-01  3.1154118089203478E-06
  3.9267267014482916E-02  1.8713568082991738E-01  3.0877089212409107E-06
  3.9658475054228967E-02  1.8672459435652689E-01  3.0603530558584171E-06
  4.0053580582697777E-02  1.8629829741146708E-01  3.0333570125541243E-06
  4.0452622429404061E-02  1.8589578520219516E-01  3.0067352816255520E-06
  4.0855639810709395E-02  1.8547610711366885E-01  2.9805035677758394E-06
  4.1262672333676274E-02  1.8506598302301469E-01  2.9546783614534947E-06
  4.1673759999960452E-02  1.8460689672903594E-01  2.9292765811274523E-06
  4.2088943209742248E-02  1.8422804163199843E-01  2.9043152245467153E-06
  4.2508262765696900E-02  1.8384158914206192E-01  2.8798109585100982E-06
  4.2931759877004552E-02  1.8343876256163216E-01  2.8557796299003003E-06
  4.3359476163399947E-02  1.8304460290826022E-01  2.8322357446189564E-06
  4.3791453659262916E-02  1.8266777483381910E-01  2.8091920156451601E-06
  4.4227734817749248E-02  1.8227118802285733E-01  2.7866591110019519E-06
  4.4668362514962784E-02  1.8186909498494749E-01  2.7646456276547876E-06
  4.5113380054169150E-02  1.8140381055046864E-01  2.7431582601627765E-06
  4.5562831170051526E-02  1.8100796158380528E-01  2.7222020965779551E-06
  4.6016760033008620E-02  1.8059736829988030E-01  2.7017809641287627E-06
  4.6475211253495588E-02  1.8016090354726033E-01  2.6818977599738928E-06
  4.6938229886408278E-02  1.7979502676807677E-01  2.6625547451170534E-06
  4.7405861435510996E-02  1.7937427134508335E-01  2.6437539549433804E-06
  4.7878151857908335E-02  1.7903282731959114E-01  2.6254980140524503E-06
  4.8355147568561879E-02  1.7865350774727817E-01  2.6077914993604070E-06
  4.8836895444851598E-02  1.7823808897927101E-01  2.5906427278030397E-06
  4.9323442831182750E-02  1.7787023183105910E-01  2.5740656170741016E-06
  4.9814837543638704E-02  1.7745436862336683E-01  2.5580811510761157E-06
  5.0311127874680277E-02  1.7706216422448121E-01  2.5427181262032088E-06
  5.0812362597891549E-02  1.7667669479499706E-01  2.5280131102377254E-06
  5.1318590972773220E-02  1.7627606943601876E-01  2.5140097654403950E-06
  5.1829862749583733E-02  1.7587904332897816E-01  2.5007578084917120E-06
  5.2346228174228508E-02  1.7546817844189641E-01  2.4883118790637015E-06
  5.2867737993197730E-02  1.7510957014081630E-01  2.4767305216157764E-06
  5.3394443458553854E-02  1.7474711194441164E-01  2.4660753142765156E-06
  5.3926396332968286E-02  1.7437311863066196E-01  2.4564099439951833E-06
  5.4463648894808377E-02  1.7400155132503076E-01  2.4477990681257574E-06
  5.5006253943275241E-02  1.7364877942668919E-01  2.4403069113143741E-06
  5.5554264803592719E-02  1.7328167654195892E-01  2.4339956905699928E-06
  5.6107735332247832E-02  1.7294445143717058E-01  2.4289242251170932E-06
  5.6666719922283670E-02  1.7259420988096996E-01  2.4251471034246364E-06
  5.7231273508645042E-02  1.7224776842574441E-01  2.4227145252338300E-06
  5.7801451573577099E-02  1.7188006851303295E-01  2.4216728050530162E-06
  5.8377310152077984E-02  1.7152528310413975E-01  2.4220653688853009E-06
  5.8958905837405873E-02  1.7114172804083466E-01  2.4239340138908532E-06
  5.9546295786640613E-02  1.7076814710074215E-01  2.4273202283841643E-06
  6.0139537726300929E-02  1.7039032153935668E-01  2.4322663880365360E-06
  6.0738689958017539E-02  1.7002051988655553E-01  2.4388166658512906E-06
  6.1343811364263000E-02  1.6964161632568667E-01  2.4470174529088598E-06
  6.1954961414138247E-02  1.6933801055955802E-01  2.4569172121945443E-06
  6.2572200169217052E-02  1.6902041402610593E-01  2.4685658740549954E-06
  6.3195588289448809E-02  1.6872750237553671E-01  2.4820139918065911E-06
  6.3825187039119810E-02  1.6841889725894293E-01  2.4973118457260028E-06
  6.4461058292873977E-02  1.6812586312282271E-01  2.5145088229271041E-06
  6.5103264541793965E-02  1.6777372758998396E-01  2.5336532490025848E-06
  6.5751868899542418E-02  1.6746930084785097E-01  2.5547926757159884E-06
  6.6406935108564352E-02  1.6710983080179473E-01  2.5779745122043721E-06
  6.7068527546351842E-02  1.6680699617268402E-01  2.6032468394873596E-06
  6.7736711231770733E-02  1.6647341488949965E-01  2.6306592417042138E-06
  6.8411551831450132E-02  1.6613292935110083E-01  2.6602634395335763E-06
  6.9093115666236382E-02  1.6581924333611167E-01  2.6921133651057234E-06
  6.9781469717710570E-02  1.6550367463624013E-01  2.7262643208108865E-06
  7.0476681634770943E-02  1.6520186266080730E-01  2.7627710642103620E-06
  7.1178819740282048E-02  1.6487315347163667E-01  2.8016849371607068E-06
  7.1887953037788235E-02  1.6456308061170208E-01  2.8430503005707533E-06
  7.2604151218295498E-02  1.6426661707618911E-01  2.8869008795986504E-06
  7.3327484667120996E-02  1.6394978015431044E-01  2.9332566511265322E-06
  7.4058024470809211E-02  1.6362067435202465E-01  2.9821216646127005E-06
  7.4795842424118866E-02  1.6332005172379829E-01  3.0334828813667109E-06
  7.5541011037078470E-02  1.6300688522763254E-01  3.0873098441345243E-06
  7.6293603542111996E-02  1.6266125546069729E-01  3.1435548099252646E-06
  7.7053693901236384E-02  1.6234130030331659E-01  3.2021530392905683E-06
  7.7821356813330050E-02  1.6200680043930804E-01  3.2630231885980580E-06
  7.8596667721473765E-02  1.6170523810857901E-01  3.3260677414514097E-06
  7.9379702820365369E-02  1.6138560045752764E-01  3.3911736716989137E-06
  8.0170539063807736E-02  1.6107569165969912E-01  3.4582136998994817E-06
  8.0969254172271188E-02  1.6076772729802261E-01  3.5270479591145839E-06
  8.1775926640532112E-02  1.6045497422894053E-01  3.5975257297829747E-06
  8.2590635745386873E-02  1.6009486155699831E-01  3.6694870560596191E-06
  8.3413461553442605E-02  1.5980079507435149E-01  3.7427638336561744E-06
  8.4244484928986382E-02  1.5943339399942477E-01  3.8171800907218271E-06
  8.5083787541931966E-02  1.5908086156815582E-01  3.8925514160947455E-06
  8.5931451875845707E-02  1.5874113725257413E-01  3.9686837111548331E-06
  8.6787561236053676E-02  1.5838976740317234E-01  4.0453716310348626E-06
  8.7652199757827481E-02  1.5804650850959384E-01  4.1223970917862637E-06
  8.8525452414653275E-02  1.5770700954245190E-01  4.1995284485549633E-06
  8.9407405026583162E-02  1.5737754119363920E-01  4.2765208636180592E-06
  9.0298144268668182E-02  1.5703859260708067E-01  4.3531181742636398E-06
  9.1197757679477298E-02  1.5665367092174423E-01  4.4290564499128342E-06
  9.2106333669700099E-02  1.5634344489339613E-01  4.5040692427635382E-06
