 #p(MeV) \t \delta f_\\nu \t \delta f_\\nubar
  4.0219983501469789E+00  1.8626944872228831E-10  1.8231074889101035E-10
  4.0620683170698761E+00  1.8296383557508980E-10  1.7905887447547645E-10
  4.1025374890916853E+00  1.7971946664534376E-10  1.7586726127938842E-10
  4.1434098433734423E+00  1.7653517027527362E-10  1.7273475862135101E-10
  4.1846893966994418E+00  1.7340985391932038E-10  1.6966029336884218E-10
  4.2263802058720064E+00  1.7034245840297320E-10  1.6664282504720862E-10
  4.2684863681101604E+00  1.6733194176426307E-10  1.6368132999576641E-10
  4.3110120214522993E+00  1.6437727903724969E-10  1.6077480115983991E-10
  4.3539613451628609E+00  1.6147746203706197E-10  1.5792224788416014E-10
  4.3973385601430373E+00  1.5863149914623038E-10  1.5512269570735837E-10
  4.4411479293456066E+00  1.5583841510230996E-10  1.5237518615756531E-10
  4.4853937581938625E+00  1.5309725078681008E-10  1.4967877654913291E-10
  4.5300803950047452E+00  1.5040706301543642E-10  1.4703253978049093E-10
  4.5752122314161836E+00  1.4776692432966327E-10  1.4443556413315423E-10
  4.6207937028186690E+00  1.4517592278964395E-10  1.4188695307190085E-10
  4.6668292887911775E+00  1.4263315444868037E-10  1.3938581789605245E-10
  4.7133235135413782E+00  1.4013766398602485E-10  1.3693121971372604E-10
  4.7602809463502718E+00  1.3768847936620250E-10  1.3452220333627658E-10
  4.8077062020212455E+00  1.3528465031849975E-10  1.3215783491892995E-10
  4.8556039413335821E+00  1.3292524825399247E-10  1.2983720188001723E-10
  4.9039788715005272E+00  1.3060936572303456E-10  1.2755941237023973E-10
  4.9528357466318740E+00  1.2833611588805271E-10  1.2532359475686117E-10
  5.0021793682011912E+00  1.2610463201114915E-10  1.2312889712233965E-10
  5.0520145855177017E+00  1.2391406695603790E-10  1.2097448677693760E-10
  5.1023462962028345E+00  1.2176359270385438E-10  1.1885954978486330E-10
  5.1531794466715670E+00  1.1965239988239331E-10  1.1678329050350782E-10
  5.2045190326185224E+00  1.1757969730835090E-10  1.1474493113536643E-10
  5.2563700995089357E+00  1.1554471338882190E-10  1.1274371308917951E-10
  5.3087377430745111E+00  1.1354674862358037E-10  1.1077894814965878E-10
  5.3616271098141937E+00  1.1158518083934549E-10  1.0885002358029920E-10
  5.4150433974999688E+00  1.0965940006035839E-10  1.0695633857703012E-10
  5.4689918556876620E+00  1.0776880435277362E-10  1.0509730021264118E-10
  5.5234777862328555E+00  1.0591279979919384E-10  1.0327232341407395E-10
  5.5785065438119386E+00  1.0409080047089334E-10  1.0148083093733434E-10
  5.6340835364483297E+00  1.0230222839777351E-10  9.9722253340067670E-11
  5.6902142260439819E+00  1.0054651353609099E-10  9.7996028951843444E-11
  5.7469041289161327E+00  9.8823093734012310E-11  9.6301603842200824E-11
  5.8041588163394389E+00  9.7131414695040494E-11  9.4638431786506075E-11
  5.8619839150935107E+00  9.5470929939371307E-11  9.3005974229677347E-11
  5.9203851080158723E+00  9.3841100694817637E-11  9.1403700181785405E-11
  5.9793681345604579E+00  9.2241368595716437E-11  8.9831059679309501E-11
  6.0389387913616748E+00  9.0671112286869769E-11  8.8287441576331373E-11
  6.0991029328040511E+00  8.9129712457679894E-11  8.6772236847469608E-11
  6.1598664715976152E+00  8.7616564516911909E-11  8.5284850929092944E-11
  6.2212353793589390E+00  8.6131078204742394E-11  8.3824703338628959E-11
  6.2832156871980409E+00  8.4672677216901715E-11  8.2391227305715114E-11
  6.3458134863110756E+00  8.3240798840460684E-11  8.0983869414746400E-11
  6.4090349285789605E+00  8.1834893600828781E-11  7.9602089258401335E-11
  6.4728862271719763E+00  8.0454424919551276E-11  7.8245359101737003E-11
  6.5373736571603507E+00  7.9098868782509948E-11  7.6913163556469013E-11
  6.6025035561309586E+00  7.7767713418144942E-11  7.5604999265061018E-11
  6.6682823248101677E+00  7.6460458985352803E-11  7.4320374594284788E-11
  6.7347164276928568E+00  7.5176624714116935E-11  7.3058816549175787E-11
  6.8018123936777473E+00  7.3915790818964074E-11  7.1819911426454992E-11
  6.8695768167090119E+00  7.2677566113682422E-11  7.0603273376222658E-11
  6.9380163564243302E+00  7.1461565253275307E-11  6.9408522291348336E-11
  7.0071377388093534E+00  7.0267408561919025E-11  6.8235283640201178E-11
  7.0769477568587158E+00  6.9094721981540821E-11  6.7083188416884509E-11
  7.1474532712436316E+00  6.7943137020213084E-11  6.5951873091236475E-11
  7.2186612109861290E+00  6.6812290700362519E-11  6.4840979558598605E-11
  7.2905785741400031E+00  6.5701825506796336E-11  6.3750155089357729E-11
  7.3632124284785796E+00  6.4611389334550398E-11  6.2679052278264365E-11
  7.4365699121892836E+00  6.3540635436564685E-11  6.1627328993535791E-11
  7.5106582345751827E+00  6.2489222371193189E-11  6.0594648325752516E-11
  7.5854846767634543E+00  6.1456812834638546E-11  5.9580677460585835E-11
  7.6610565924209899E+00  6.0443048070433824E-11  5.8585062888469843E-11
  7.7373814084770522E+00  5.9447547717718986E-11  5.7607430238294842E-11
  7.8144666258531785E+00  5.8469938622249494E-11  5.6647412244467290E-11
  7.8923198202003571E+00  5.7509856235005312E-11  5.5704650105185955E-11
  7.9709486426435081E+00  5.6566944392583084E-11  5.4778793266726888E-11
  8.0503608205334238E+00  5.5640855104048617E-11  5.3869499214054495E-11
  8.1305641582061945E+00  5.4731248344026302E-11  5.2976433267543430E-11
  8.2115665377501568E+00  5.3837791851816374E-11  5.2099268385601878E-11
  8.2933759197805585E+00  5.2960160936331074E-11  5.1237684972996156E-11
  8.3760003442218558E+00  5.2098038286655665E-11  5.0391370694684537E-11
  8.4594479310978876E+00  5.1251113788044255E-11  4.9560020294973899E-11
  8.5437268813298495E+00  5.0419084366416312E-11  4.8743335444093073E-11
  8.6288454775422583E+00  4.9601660403161818E-11  4.7941030945849919E-11
  8.7148120848769626E+00  4.8798576879554459E-11  4.7152845552507187E-11
  8.8016351518151978E+00  4.8009576956543419E-11  4.6378526026314846E-11
  8.8893232110078966E+00  4.7234408351904359E-11  4.5617823617216573E-11
  8.9778848801142548E+00  4.6472823262070583E-11  4.4870493986132417E-11
  9.0673288626486066E+00  4.5724578285832549E-11  4.4136297130052765E-11
  9.1576639488358218E+00  4.4989434349822385E-11  4.3414997308860844E-11
  9.2488990164751286E+00  4.4267156635704785E-11  4.2706362973808083E-11
  9.3410430318126370E+00  4.3557514508999530E-11  4.2010166697569060E-11
  9.4341050504224686E+00  4.2860281449465745E-11  4.1326185105807841E-11
  9.5280942180967241E+00  4.2175234982981805E-11  4.0654198810191528E-11
  9.6230197717443122E+00  4.1502156614906263E-11  3.9993992342834446E-11
  9.7188910402986846E+00  4.0840833226552835E-11  3.9345355494719404E-11
  9.8157174456346681E+00  4.0191062120949165E-11  3.8708088134236688E-11
  9.9135085034944304E+00  3.9552645470279052E-11  3.8081994872128211E-11
  1.0012273824422605E+01  3.8925388576909830E-11  3.7466883407262760E-11
  1.0112023114710839E+01  3.8309099845580798E-11  3.6862564499301426E-11
  1.0212766177351631E+01  3.7703590741490815E-11  3.6268851927596775E-11
  1.0314512913001787E+01  3.7108675749675462E-11  3.5685562451319402E-11
  1.0417273320955378E+01  3.6524172335580685E-11  3.5112515770720669E-11
  1.0521057500126457E+01  3.5949900906742511E-11  3.4549534489445226E-11
  1.0625875650041552E+01  3.5385684775492038E-11  3.3996444077812552E-11
  1.0731738071842004E+01  3.4831350122608195E-11  3.3453072836994407E-11
  1.0838655169296352E+01  3.4286725961847744E-11  3.2919251864018062E-11
  1.0946637449822777E+01  3.3751643191248990E-11  3.2394814143693587E-11
  1.1055695525521713E+01  3.3225922072147213E-11  3.1879582589415703E-11
  1.1165840114218796E+01  3.2709376439775630E-11  3.1373374093613910E-11
  1.1277082040518128E+01  3.2201824016519917E-11  3.0876009381418277E-11
  1.1389432236866131E+01  3.1703086549302762E-11  3.0387313138346782E-11
  1.1502901744625905E+01  3.1212989710176181E-11  2.9907113912593303E-11
  1.1617501715162351E+01  3.0731363000341547E-11  2.9435244020662285E-11
  1.1733243410938096E+01  3.0258039657444527E-11  2.8971539456200171E-11
  1.1850138206620299E+01  2.9792856565997968E-11  2.8515839801880041E-11
  1.1968197590198530E+01  2.9335654170793872E-11  2.8067988144202711E-11
  1.2087433164113778E+01  2.8886276393171649E-11  2.7627830991084509E-11
  1.2207856646398664E+01  2.8444570550017414E-11  2.7195218192108367E-11
  1.2329479871829070E+01  2.8010387371681516E-11  2.6770002953515936E-11
  1.2452314793087215E+01  2.7583587764795225E-11  2.6352048245383967E-11
  1.2576373481936322E+01  2.7164045527865235E-11  2.5941229305216077E-11
  1.2701668130406970E+01  2.6751637239150070E-11  2.5537424076485965E-11
  1.2828211051995289E+01  2.6346241537432517E-11  2.5140512538921816E-11
  1.2956014682873112E+01  2.5947739088916011E-11  2.4750376675905624E-11
  1.3085091583110113E+01  2.5556012555543810E-11  2.4366900443237906E-11
  1.3215454437908180E+01  2.5170946564636787E-11  2.3989969739165727E-11
  1.3347116058848099E+01  2.4792427679754003E-11  2.3619472375581225E-11
  1.3480089385148586E+01  2.4420344372685498E-11  2.3255298050301657E-11
  1.3614387484937922E+01  2.4054586996493205E-11  2.2897338320349287E-11
  1.3750023556538249E+01  2.3695047759520802E-11  2.2545486576154562E-11
  1.3887010929762660E+01  2.3341620700525969E-11  2.2199638016807153E-11
  1.4025363067225165E+01  2.2994201247115922E-11  2.1859689266464823E-11
  1.4165093565663776E+01  2.2652690266240258E-11  2.1525542431561859E-11
  1.4306216157276761E+01  2.2316993141346393E-11  2.1197104057929365E-11
  1.4448744711072154E+01  2.1987016487979602E-11  2.0874281909282674E-11
  1.4592693234230762E+01  2.1662668129043489E-11  2.0556984943364985E-11
  1.4738075873482776E+01  2.1343857087527714E-11  2.0245123304865247E-11
  1.4884906916498005E+01  2.1030493580257591E-11  1.9938608319297376E-11
  1.5033200793290035E+01  2.0722489012546232E-11  1.9637352487724032E-11
  1.5182972077634385E+01  2.0419755973637221E-11  1.9341269482215821E-11
  1.5334235488500743E+01  2.0122208232836077E-11  1.9050274141946669E-11
  1.5487005891499463E+01  1.9829760736235182E-11  1.8764282469832046E-11
  1.5641298300342541E+01  1.9542329603943834E-11  1.8483211629624682E-11
  1.5797127878319120E+01  1.9259831680958354E-11  1.8206979506718699E-11
  1.5954509939785629E+01  1.8982172698909891E-11  1.7935493274084361E-11
  1.6113459951670851E+01  1.8709247948747390E-11  1.7668650095489861E-11
  1.6273993534995988E+01  1.8440954931526042E-11  1.7406349320440205E-11
  1.6436126466409775E+01  1.8177193815318714E-11  1.7148492921000868E-11
  1.6599874679738974E+01  1.7917867355624708E-11  1.6894985413537875E-11
  1.6765254267554329E+01  1.7662880819078859E-11  1.6645733783679931E-11
  1.6932281482752046E+01  1.7412141910300260E-11  1.6400647414344693E-11
  1.7100972740151061E+01  1.7165560701726727E-11  1.6159638016678685E-11
  1.7271344618106244E+01  1.6923049566290035E-11  1.5922619563768072E-11
  1.7443413860137682E+01  1.6684523112793199E-11  1.5689508226984784E-11
  1.7617197376576119E+01  1.6449898123858617E-11  1.5460222314839003E-11
  1.7792712246224863E+01  1.6219093504306635E-11  1.5234682224099529E-11
  1.7969975718038274E+01  1.5992037918658165E-11  1.5012817797511023E-11
  1.8149005212816846E+01  1.5768678862237148E-11  1.4794576970139892E-11
  1.8329818324919302E+01  1.5548966510891867E-11  1.4579910256399290E-11
  1.8512432823991723E+01  1.5332851330066734E-11  1.4368768463311510E-11
  1.8696866656713858E+01  1.5120284088972837E-11  1.4161102704427960E-11
  1.8883137948562837E+01  1.4911215874349217E-11  1.3956864413328325E-11
  1.9071265005594508E+01  1.4705598103803430E-11  1.3756005356687489E-11
  1.9261266316242498E+01  1.4503382538721413E-11  1.3558477646901313E-11
  1.9453160553135145E+01  1.4304521296738770E-11  1.3364233754263527E-11
  1.9646966574930609E+01  1.4108966863766781E-11  1.3173226518687887E-11
  1.9842703428170235E+01  1.3916672105568661E-11  1.2985409160971014E-11
  2.0040390349150350E+01  1.3727590279421925E-11  1.2800735294079626E-11
  2.0240046765812732E+01  1.3541672408680451E-11  1.2619156407814059E-11
  2.0441692299653969E+01  1.3358855567734584E-11  1.2440610723080068E-11
  2.0645346767653759E+01  1.3179073449545673E-11  1.2265033295594240E-11
  2.0851030184222385E+01  1.3002261423157198E-11  1.2092360827588433E-11
  2.1058762763167760E+01  1.2828356488784593E-11  1.1922531623570756E-11
  2.1268564919681932E+01  1.2657297231651066E-11  1.1755485544944146E-11
  2.1480457272347365E+01  1.2489023777394659E-11  1.1591163966164457E-11
  2.1694460645163311E+01  1.2323477748985549E-11  1.1429509732377315E-11
  2.1910596069592323E+01  1.2160602225094607E-11  1.1270467118476373E-11
  2.2128884786627086E+01  1.2000341699856992E-11  1.1113981789527529E-11
  2.2349348248877963E+01  1.1842642043976892E-11  1.0960000762506178E-11
  2.2572008122681261E+01  1.1687450467121597E-11  1.0808472369296624E-11
  2.2796886290228546E+01  1.1534716089942818E-11  1.0659346791749913E-11
  2.3024004851717038E+01  1.1384397696931208E-11  1.0512583345068378E-11
  2.3253386127521679E+01  1.1236460997341760E-11  1.0368147887242333E-11
  2.3485052660388632E+01  1.1090872222636504E-11  1.0226006787856543E-11
  2.3719027217650666E+01  1.0947597969746651E-11  1.0086126780281353E-11
  2.3955332793464684E+01  1.0806605202155260E-11  9.9484749626200187E-12
  2.4193992611071533E+01  1.0667861250803343E-11  9.8130187984777654E-12
  2.4435030125078228E+01  1.0531333814824543E-11  9.6797261175574442E-12
  2.4678469023763022E+01  1.0396990962112447E-11  9.5485651160862823E-12
  2.4924333231403420E+01  1.0264801129725861E-11  9.4195043570785251E-12
  2.5172646910627371E+01  1.0134733124136300E-11  9.2925127704387096E-12
  2.5423434464787778E+01  1.0006756121322951E-11  9.1675596529103388E-12
  2.5676720540360936E+01  9.8808395856002387E-12  9.0446145951914068E-12
  2.5932530029368596E+01  9.7569499560061333E-12  8.9236444626450489E-12
  2.6190888071824247E+01  9.6350494771575838E-12  8.8046123203139319E-12
  2.6451820058203829E+01  9.5151007915133440E-12  8.6874816477674797E-12
  2.6715351631941033E+01  9.3970673099171279E-12  8.5722166801301484E-12
  2.6981508691947365E+01  9.2809131944544807E-12  8.4587823912495332E-12
  2.7250317395157460E+01  9.1666033417630434E-12  8.3471444773068977E-12
  2.7521804159099677E+01  9.0541033667823305E-12  8.2372693408562188E-12
  2.7795995664492349E+01  8.9433795869292631E-12  8.1291240752787545E-12
  2.8072918857865726E+01  8.8343990066864868E-12  8.0226764496398540E-12
  2.8352600954210370E+01  8.7271293025907125E-12  7.9178948939357660E-12
  2.8635069439651641E+01  8.6215388086090064E-12  7.8147484847186180E-12
  2.8920352074150930E+01  8.5175965038395094E-12  7.7132069326537445E-12
  2.9208476894233804E+01  8.4152723688047150E-12  7.6132408663405476E-12
  2.9499472215745403E+01  8.3145373801799725E-12  7.5148217610627053E-12
  2.9793366636633131E+01  8.2153630146333634E-12  7.4179215712506440E-12
  3.0090189039757178E+01  8.1177213348130220E-12  7.3225128268429124E-12
  3.0389968595729073E+01  8.0215849759443364E-12  7.2285686200912233E-12
  3.0692734765778422E+01  7.9269271327761226E-12  7.1360625927073181E-12
  3.0998517304648189E+01  7.8337215468721279E-12  7.0449689233479069E-12
  3.1307346263519008E+01  7.7419424942375374E-12  6.9552623154272622E-12
  3.1619251992962447E+01  7.6515647732706498E-12  6.8669179852481119E-12
  3.1934265145923700E+01  7.5625636930302450E-12  6.7799116504410954E-12
  3.2252416680734086E+01  7.4749150618090661E-12  6.6942195187037906E-12
  3.2573737864153593E+01  7.3885951760049250E-12  6.6098182768305043E-12
  3.2898260274443508E+01  7.3035808390851490E-12  6.5266851188681989E-12
  3.3226015804469917E+01  7.2198503471273790E-12  6.4447987062983247E-12
  3.3557036664838009E+01  7.1373832516562756E-12  6.3641389045847020E-12
  3.3891355387057637E+01  7.0561594607555239E-12  6.2846859292464379E-12
  3.4229004826740237E+01  6.9761592136012775E-12  6.2064203219368261E-12
  3.4570018166828000E+01  6.8973630753314294E-12  6.1293229453564949E-12
  3.4914428920854824E+01  6.8197519320060205E-12  6.0533749782537425E-12
  3.5262270936239887E+01  6.7433069856566100E-12  5.9785579105099455E-12
  3.5613578397614070E+01  6.6680097494224949E-12  5.9048535383078988E-12
  3.5968385830179592E+01  6.5938420427717821E-12  5.8322439593811293E-12
  3.6326728103102859E+01  6.5207859868054888E-12  5.7607115683424176E-12
  3.6688640432941369E+01  6.4488239996426409E-12  5.6902390520895302E-12
  3.7054158387104707E+01  6.3779387584363002E-12  5.6208093539586507E-12
  3.7423317887349860E+01  6.3081114882434862E-12  5.5524041072495316E-12
  3.7796155213311543E+01  6.2393212774206027E-12  5.4850030225893052E-12
  3.8172707006067668E+01  6.1715474998567520E-12  5.4185861040757592E-12
  3.8553010271740234E+01  6.1047700064112193E-12  5.3531338231236531E-12
  3.8937102385132150E+01  6.0389691125472026E-12  5.2886271063666268E-12
  3.9325021093400295E+01  5.9741255863367470E-12  5.2250473239206318E-12
  3.9716804519765255E+01  5.9102206368246408E-12  5.1623762779969359E-12
  4.0112491167257794E+01  5.8472359027396942E-12  5.1005961918533257E-12
  4.0512119922502855E+01  5.7851534415419698E-12  5.0396896990722488E-12
  4.0915730059541261E+01  5.7239557187952428E-12  4.9796398331552616E-12
  4.1323361243689355E+01  5.6636255978540322E-12  4.9204300174235000E-12
  4.1735053535437061E+01  5.6041463305712315E-12  4.8620440558306972E-12
  4.2150847394385089E+01  5.5455021341433404E-12  4.8044666417795878E-12
  4.2570783683221073E+01  5.4876793950528742E-12  4.7476844247978811E-12
  4.2994903671735258E+01  5.4306651203111424E-12  4.6916846298632609E-12
  4.3423249040876584E+01  5.3744465503551921E-12  4.6364547108671580E-12
  4.3855861886848828E+01  5.3190111545079140E-12  4.5819823461356117E-12
  4.4292784725247522E+01  5.2643466265474287E-12  4.5282554340553729E-12
  4.4734060495238509E+01  5.2104408803825950E-12  4.4752620888021665E-12
  4.5179732563777691E+01  5.1572820458319609E-12  4.4229906361683603E-12
  4.5629844729872808E+01  5.1048584645032796E-12  4.3714296094872235E-12
  4.6084441228888330E+01  5.0531586857708002E-12  4.3205677456510179E-12
  4.6543566736892181E+01  5.0021714628478512E-12  4.2703939812205119E-12
  4.7007266375046548E+01  4.9518857489518073E-12  4.2208974486229758E-12
  4.7475585714042602E+01  4.9022905260135010E-12  4.1720673300050676E-12
  4.7948570778578308E+01  4.8533737786416115E-12  4.1238919781347419E-12
  4.8426268051882140E+01  4.8051231932026666E-12  4.0763595172783610E-12
  4.8908724480281087E+01  4.7575267118168804E-12  4.0294583227503647E-12
  4.9395987477814202E+01  4.7105725302878248E-12  3.9831770185358484E-12
  4.9888104930892581E+01  4.6642490922081367E-12  3.9375044715203100E-12
  5.0385125203005309E+01  4.6185450832297366E-12  3.8924297858777176E-12
  5.0887097139472310E+01  4.5734494254934505E-12  3.8479422976121497E-12
  5.1394070072244965E+01  4.5289512722133908E-12  3.8040315692480486E-12
  5.1906093824754159E+01  4.4850400024112065E-12  3.7606873846647713E-12
  5.2423218716806538E+01  4.4417052157960164E-12  3.7178997440707262E-12
  5.2945495569530109E+01  4.3989367277854531E-12  3.6756588591129634E-12
  5.3472975710368573E+01  4.3567246073045213E-12  3.6339551821305465E-12
  5.4005710978125443E+01  4.3150598953583656E-12  3.5927799829819281E-12
  5.4543753728058903E+01  4.2739344872178938E-12  3.5521252516799612E-12
  5.5087156837026917E+01  4.2333404485356218E-12  3.5119831403830794E-12
  5.5635973708683544E+01  4.1932699857878653E-12  3.4723459384120009E-12
  5.6190258278727875E+01  4.1537154434877734E-12  3.4332060694905230E-12
  5.6750065020203920E+01  4.1146693014732223E-12  3.3945560890574242E-12
  5.7315448948854318E+01  4.0761241722671695E-12  3.3563886816469597E-12
  5.7886465628527439E+01  4.0380727985084023E-12  3.3186966583360783E-12
  5.8463171176637289E+01  4.0005080504507916E-12  3.2814729542562645E-12
  5.9045622269679086E+01  3.9634229235289047E-12  3.2447106261679634E-12
  5.9633876148799047E+01  3.9268105359881851E-12  3.2084028500957994E-12
