 #p(MeV) \t \delta f_\\nu \t \delta f_\\nubar
  7.5373081050457369E-02  2.6826317955223444E-01  1.6361800655070304E-05
  7.6124000519247878E-02  2.6776658843646789E-01  1.6225170319867860E-05
  7.6882401174169390E-02  2.6734027960394163E-01  1.6089508102977188E-05
  7.7648357548042432E-02  2.6702705213809075E-01  1.5954811800864673E-05
  7.8421944916235525E-02  2.6668534670526961E-01  1.5821079689682631E-05
  7.9203239304063408E-02  2.6614844263764331E-01  1.5688310407333365E-05
  7.9992317494258142E-02  2.6561116187782480E-01  1.5556502810519334E-05
  8.0789257034515172E-02  2.6506206317494591E-01  1.5425655983218946E-05
  8.1594136245114579E-02  2.6461052009593578E-01  1.5295769323002491E-05
  8.2407034226617853E-02  2.6416858342623412E-01  1.5166842211450867E-05
  8.3228030867641828E-02  2.6372881623821615E-01  1.5038873338573703E-05
  8.4057206852709662E-02  2.6324610221237049E-01  1.4911860112366926E-05
  8.4894643670180250E-02  2.6279300234427450E-01  1.4785798394042805E-05
  8.5740423620256800E-02  2.6230144381884407E-01  1.4660682541324051E-05
  8.6594629823074643E-02  2.6183305538567408E-01  1.4536505628752436E-05
  8.7457346226870361E-02  2.6142442378036779E-01  1.4413259724822704E-05
  8.8328657616231585E-02  2.6097614565462723E-01  1.4290936153182733E-05
  8.9208649620429403E-02  2.6057083876296111E-01  1.4169525696393044E-05
  9.0097408721833874E-02  2.6012460974291329E-01  1.4049018831337975E-05
  9.0995022264412917E-02  2.5968757145704668E-01  1.3929405888043622E-05
  9.1901578462316405E-02  2.5925021885370964E-01  1.3810676848999330E-05
  9.2817166408545287E-02  2.5876793316153551E-01  1.3692821250923546E-05
  9.3741876083707473E-02  2.5825040177054748E-01  1.3575828546556467E-05
  9.4675798364860897E-02  2.5773201645274363E-01  1.3459688686301601E-05
  9.5619025034444180E-02  2.5725219482330958E-01  1.3344392576871315E-05
  9.6571648789297249E-02  2.5683935702333149E-01  1.3229932275046998E-05
  9.7533763249770714E-02  2.5642314961222545E-01  1.3116300956102963E-05
  9.8505462968926746E-02  2.5601886134424767E-01  1.3003492760247710E-05
  9.9486843441831535E-02  2.5551520459271637E-01  1.2891502600587284E-05
  1.0047800111493993E-01  2.5498543503421195E-01  1.2780325988607644E-05
  1.0147903339557410E-01  2.5451115402955432E-01  1.2669958847011532E-05
  1.0249003866149610E-01  2.5400740115397064E-01  1.2560397288749555E-05
  1.0351111627057626E-01  2.5355834594060500E-01  1.2451637693356999E-05
  1.0454236657055777E-01  2.5312743126396353E-01  1.2343676992061403E-05
  1.0558389090891816E-01  2.5268952745809942E-01  1.2236512726928837E-05
  1.0663579164282984E-01  2.5222536015119273E-01  1.2130142807488902E-05
  1.0769817214921890E-01  2.5184627087625133E-01  1.2024565160840433E-05
  1.0877113683492490E-01  2.5141824200757701E-01  1.1919777457322215E-05
  1.0985479114696163E-01  2.5098446583118789E-01  1.1815776977029559E-05
  1.1094924158287980E-01  2.5051783645174064E-01  1.1712560589344397E-05
  1.1205459570123340E-01  2.5002460893220690E-01  1.1610124796517222E-05
  1.1317096213215025E-01  2.4957733964681031E-01  1.1508465798893847E-05
  1.1429845058800746E-01  2.4913077955811891E-01  1.1407579562803840E-05
  1.1543717187421398E-01  2.4862146944039623E-01  1.1307461902102830E-05
  1.1658723790009967E-01  2.4819075576055283E-01  1.1208108522581694E-05
  1.1774876168991381E-01  2.4774345393888197E-01  1.1109515080161796E-05
  1.1892185739393232E-01  2.4727623412842370E-01  1.1011677394397516E-05
  1.2010664029967619E-01  2.4684963545013047E-01  1.0914591767310681E-05
  1.2130322684324163E-01  2.4640453381136201E-01  1.0818255239955711E-05
  1.2251173462074279E-01  2.4594118389329547E-01  1.0722665688003461E-05
  1.2373228239986864E-01  2.4546029912890557E-01  1.0627821764806988E-05
  1.2496499013155533E-01  2.4501726793743789E-01  1.0533722757047967E-05
  1.2620997896177411E-01  2.4459912751108687E-01  1.0440368415669020E-05
  1.2746737124343754E-01  2.4419940132262299E-01  1.0347758800996674E-05
  1.2873729054842342E-01  2.4374482809036635E-01  1.0255894157433560E-05
  1.3001986167971943E-01  2.4332376919374701E-01  1.0164774828917937E-05
  1.3131521068368798E-01  2.4284401005773809E-01  1.0074401167672112E-05
  1.3262346486245366E-01  2.4234055936636167E-01  9.9847732560301680E-06
  1.3394475278641421E-01  2.4185858424164070E-01  9.8958903990088854E-06
  1.3527920430687571E-01  2.4138702801221518E-01  9.8077505889787316E-06
  1.3662695056881391E-01  2.4105552540633304E-01  9.7203501821607957E-06
  1.3798812402376287E-01  2.4061964403891437E-01  9.6336838764751390E-06
  1.3936285844283156E-01  2.4016534703191655E-01  9.5477449239936227E-06
  1.4075128892985070E-01  2.3963759164220694E-01  9.4625254526622790E-06
  1.4215355193464976E-01  2.3919929340074417E-01  9.3780167949265359E-06
  1.4356978526646741E-01  2.3866439897924788E-01  9.2942097687514916E-06
  1.4500012810749435E-01  2.3825852616223744E-01  9.2110948968086496E-06
  1.4644472102655176E-01  2.3781423215038258E-01  9.1286625722521089E-06
  1.4790370599290620E-01  2.3734031015520327E-01  9.0469032187427989E-06
  1.4937722639022141E-01  2.3692423553534042E-01  8.9658076107392870E-06
  1.5086542703064962E-01  2.3651537126476707E-01  8.8853673543148011E-06
  1.5236845416906356E-01  2.3614366695536196E-01  8.8055753042737511E-06
  1.5388645551742908E-01  2.3568732194988062E-01  8.7264257382982894E-06
  1.5541958025932262E-01  2.3524419575154801E-01  8.6479142689913169E-06
  1.5696797906459156E-01  2.3477697073663042E-01  8.5700375897745913E-06
  1.5853180410416234E-01  2.3432876719002727E-01  8.4927931709458840E-06
  1.6011120906499454E-01  2.3389327943968402E-01  8.4161789850976768E-06
  1.6170634916518495E-01  2.3342528828978412E-01  8.3401932944092023E-06
  1.6331738116922212E-01  2.3301984149375299E-01  8.2648344999974897E-06
  1.6494446340339206E-01  2.3257712947502529E-01  8.1901010328333594E-06
  1.6658775577133822E-01  2.3213748158257458E-01  8.1159912432244624E-06
  1.6824741976977653E-01  2.3166196593597721E-01  8.0425031605629145E-06
  1.6992361850436602E-01  2.3121328843421382E-01  7.9696341353278964E-06
  1.7161651670573905E-01  2.3075311194494449E-01  7.8973806137639719E-06
  1.7332628074568951E-01  2.3031797266984047E-01  7.8257381947237614E-06
  1.7505307865352424E-01  2.2989339901938163E-01  7.7547019063982067E-06
  1.7679708013257553E-01  2.2948795050227686E-01  7.6842665460326089E-06
  1.7855845657687908E-01  2.2910354370126654E-01  7.6144269578165929E-06
  1.8033738108801858E-01  2.2866981546045750E-01  7.5451782033854635E-06
  1.8213402849213670E-01  2.2822643209152402E-01  7.4765156352609094E-06
  1.8394857535711662E-01  2.2776098957131435E-01  7.4084349040089460E-06
  1.8578120000993487E-01  2.2725884084220846E-01  7.3409319362727650E-06
  1.8763208255418601E-01  2.2679254582962488E-01  7.2740029226136842E-06
  1.8950140488778314E-01  2.2630357114242652E-01  7.2076443965329302E-06
  1.9138935072083355E-01  2.2588524361434781E-01  7.1418534118726149E-06
  1.9329610559369381E-01  2.2547252800256948E-01  7.0766276001397548E-06
  1.9522185689520319E-01  2.2503237761273168E-01  7.0119649540735738E-06
  1.9716679388110006E-01  2.2468489497840641E-01  6.9478634152037681E-06
  1.9913110769262130E-01  2.2425014505785462E-01  6.8843204543917766E-06
  2.0111499137528657E-01  2.2382672162426562E-01  6.8213327941765856E-06
  2.0311863989787030E-01  2.2339944960460656E-01  6.7588963119450216E-06
  2.0514225017156273E-01  2.2295977541082374E-01  6.6970060828055565E-06
  2.0718602106932116E-01  2.2249771546372737E-01  6.6356565021901587E-06
  2.0925015344541500E-01  2.2203844698040667E-01  6.5748414348429675E-06
  2.1133485015516434E-01  2.2163787932031837E-01  6.5145543461285555E-06
  2.1344031607487646E-01  2.2120433017973437E-01  6.4547883666693779E-06
  2.1556675812197987E-01  2.2074996551094639E-01  6.3955362741448351E-06
  2.1771438527535944E-01  2.2028742607528476E-01  6.3367905512063645E-06
  2.1988340859589456E-01  2.1984628749580939E-01  6.2785436749916629E-06
  2.2207404124720070E-01  2.1944460173997105E-01  6.2207885912004550E-06
  2.2428649851657870E-01  2.1901709025402161E-01  6.1635191905528447E-06
  2.2652099783617272E-01  2.1863844196623411E-01  6.1067306205451081E-06
  2.2877775880433807E-01  2.1823918129738004E-01  6.0504193705056925E-06
  2.3105700320722278E-01  2.1781722055966360E-01  5.9945831759458180E-06
  2.3335895504056411E-01  2.1732571535928402E-01  5.9392208208077979E-06
  2.3568384053170199E-01  2.1680338070633895E-01  5.8843319055808593E-06
  2.3803188816181145E-01  2.1631250780296843E-01  5.8299166321559448E-06
  2.4040332868835704E-01  2.1586762667567044E-01  5.7759756458977066E-06
  2.4279839516777144E-01  2.1547808597466600E-01  5.7225099739246893E-06
  2.4521732297835833E-01  2.1512346125973791E-01  5.6695209873094623E-06
  2.4766034984342519E-01  2.1475492614972591E-01  5.6170102421326846E-06
  2.5012771585464610E-01  2.1434866926599930E-01  5.5649791609952043E-06
  2.5261966349565623E-01  2.1393346266016322E-01  5.5134286463989190E-06
  2.5513643766588284E-01  2.1345167937051121E-01  5.4623587580477855E-06
  2.5767828570461304E-01  2.1299091924840000E-01  5.4117685493378066E-06
  2.6024545741530147E-01  2.1258284337580680E-01  5.3616560637038296E-06
  2.6283820509011946E-01  2.1216264095664034E-01  5.3120184413932490E-06
  2.6545678353474994E-01  2.1173127885275642E-01  5.2628520804820683E-06
  2.6810145009342901E-01  2.1130975548323325E-01  5.2141528063694666E-06
  2.7077246467423610E-01  2.1086377483640481E-01  5.1659160153987460E-06
  2.7347008977463694E-01  2.1044188257544663E-01  5.1181367397576783E-06
  2.7619459050728173E-01  2.1005210252042425E-01  5.0708096166814176E-06
  2.7894623462605805E-01  2.0962677588061476E-01  5.0239288556288767E-06
  2.8172529255240547E-01  2.0920526688450070E-01  4.9774882988356148E-06
  2.8453203740189187E-01  2.0875411279879375E-01  4.9314815923736468E-06
  2.8736674501105386E-01  2.0829813918911511E-01  4.8859024164600850E-06
  2.9022969396450449E-01  2.0790074337595688E-01  4.8407446914791713E-06
  2.9312116562231227E-01  2.0746858512852137E-01  4.7960027095021083E-06
  2.9604144414765232E-01  2.0704003602859539E-01  4.7516711868397714E-06
  2.9899081653473192E-01  2.0662064965014409E-01  4.7077452551800684E-06
  3.0196957263699592E-01  2.0619020523311316E-01  4.6642204176832397E-06
  3.0497800519561286E-01  2.0580363347799724E-01  4.6210924929969510E-06
  3.0801640986824358E-01  2.0542261121836111E-01  4.5783575816915679E-06
  3.1108508525809758E-01  2.0500026847992062E-01  4.5360121007354056E-06
  3.1418433294327941E-01  2.0455392848602552E-01  4.4940528515820464E-06
  3.1731445750642590E-01  2.0410001071251185E-01  4.4524770416316047E-06
  3.2047576656463939E-01  2.0364330921004545E-01  4.4112822156990918E-06
  3.2366857079971956E-01  2.0321725692904458E-01  4.3704661104890794E-06
  3.2689318398869616E-01  2.0277628810915438E-01  4.3300264853619570E-06
  3.3014992303466545E-01  2.0236233166114975E-01  4.2899609845766418E-06
  3.3343910799793430E-01  2.0196987763095103E-01  4.2502670539938555E-06
  3.3676106212747525E-01  2.0156270845569582E-01  4.2109419121049391E-06
  3.4011611189269320E-01  2.0118504363967196E-01  4.1719825603830574E-06
  3.4350458701551018E-01  2.0077926445289512E-01  4.1333858148171900E-06
  3.4692682050276935E-01  2.0039684628278240E-01  4.0951483440576872E-06
  3.5038314867896170E-01  1.9999633900356048E-01  4.0572666877098704E-06
  3.5387391121927786E-01  1.9955895495261913E-01  4.0197372631715462E-06
  3.5739945118299116E-01  1.9912597973592469E-01  3.9825564068880779E-06
  3.6096011504717218E-01  1.9866108124120446E-01  3.9457204743153297E-06
  3.6455625274073855E-01  1.9822595338665919E-01  3.9092259824678927E-06
  3.6818821767884508E-01  1.9778392266990602E-01  3.8730697528288173E-06
  3.7185636679761652E-01  1.9738379714298238E-01  3.8372490084710335E-06
  3.7556106058922506E-01  1.9698973171295922E-01  3.8017614087991319E-06
  3.7930266313731853E-01  1.9655815067805960E-01  3.7666050285474413E-06
  3.8308154215280171E-01  1.9615584449657553E-01  3.7317782997423204E-06
  3.8689806900997337E-01  1.9570159347122840E-01  3.6972799386809353E-06
  3.9075261878302220E-01  1.9528834252180652E-01  3.6631088701914285E-06
  3.9464557028288999E-01  1.9484501344679375E-01  3.6292641620462246E-06
  3.9857730609449854E-01  1.9442750263925332E-01  3.5957449828791250E-06
  4.0254821261434837E-01  1.9406213106144340E-01  3.5625505817419651E-06
  4.0655868008849294E-01  1.9371374646318643E-01  3.5296802800345864E-06
  4.1060910265089090E-01  1.9331853862185619E-01  3.4971334643106648E-06
  4.1469987836213912E-01  1.9293824379100194E-01  3.4649095706707631E-06
  4.1883140924859324E-01  1.9250859462741943E-01  3.4330080653352890E-06
  4.2300410134187749E-01  1.9207902056752776E-01  3.4014284248319989E-06
  4.2721836471878821E-01  1.9163471319598860E-01  3.3701701176462394E-06
  4.3147461354159289E-01  1.9120325032246516E-01  3.3392325906732442E-06
  4.3577326609873496E-01  1.9077666344726965E-01  3.3086152604689850E-06
  4.4011474484594060E-01  1.9035831910869433E-01  3.2783175084590105E-06
  4.4449947644773546E-01  1.8994847998951178E-01  3.2483386773838134E-06
  4.4892789181937631E-01  1.8953251415636363E-01  3.2186781031236427E-06
  4.5340042616920045E-01  1.8912655239491252E-01  3.1893352983538985E-06
  4.5791751904139505E-01  1.8874374174416364E-01  3.1603103765521054E-06
  4.6247961435919460E-01  1.8834705133515786E-01  3.1316046723526217E-06
  4.6708716046850840E-01  1.8793242789946263E-01  3.1032213973426111E-06
  4.7174061018198238E-01  1.8754345974478412E-01  3.0751661373368994E-06
  4.7644042082349780E-01  1.8713565564309229E-01  3.0474470601658819E-06
  4.8118705427311875E-01  1.8672456912648730E-01  3.0200748152389496E-06
  4.8598097701248183E-01  1.8629827213683722E-01  2.9930621991482214E-06
  4.9082266017064019E-01  1.8589575988474705E-01  2.9664237001756226E-06
  4.9571257957036502E-01  1.8547608175186567E-01  2.9401750224367743E-06
  5.0065121577490823E-01  1.8506595761747818E-01  2.9143326565976009E-06
  5.0563905413522869E-01  1.8460687127565412E-01  2.8889135219162438E-06
  5.1067658483769218E-01  1.8422801613711395E-01  2.8639346181008387E-06
  5.1576430295224462E-01  1.8384156360491399E-01  2.8394126151974514E-06
  5.2090270848106679E-01  1.8343873698074950E-01  2.8153633634403144E-06
  5.2609230640770954E-01  1.8304457728420159E-01  2.7918013715916852E-06
  5.3133360674672536E-01  1.8266774916784825E-01  2.7687393556338487E-06
  5.3662712459378936E-01  1.8227116231323187E-01  2.7461879867104416E-06
  5.4197338017632013E-01  1.8186906923108115E-01  2.7241558645109503E-06
  5.4737289890460628E-01  1.8140378474708965E-01  2.7026496857330967E-06
  5.5282621142344324E-01  1.8100793573641275E-01  2.6816745394005794E-06
  5.5833385366428068E-01  1.8059734240713640E-01  2.6612342517329083E-06
  5.6389636689789313E-01  1.8016087760691829E-01  2.6413317173105072E-06
  5.6951429778757490E-01  1.7979500078573424E-01  2.6219691939250841E-06
  5.7518819844286284E-01  1.7937424531612828E-01  2.6031487134605654E-06
  5.8091862647379511E-01  1.7903280125033291E-01  2.5848728960093050E-06
  5.8670614504571306E-01  1.7865348163448047E-01  2.5671463129895181E-06
  5.9255132293460577E-01  1.7823806281983420E-01  2.5499772762943294E-06
  5.9845473458300713E-01  1.7787020562870101E-01  2.5333796980191561E-06
  6.0441696015644986E-01  1.7745434237400420E-01  2.5173745553483838E-06
  6.1043858560048370E-01  1.7706213792987413E-01  2.5019906384702825E-06
  6.1652020269825747E-01  1.7667666845552216E-01  2.4872645099642189E-06
  6.2266240912867854E-01  1.7627604305025957E-01  2.4732398276556946E-06
  6.2886580852515139E-01  1.7587901689704771E-01  2.4599663049397686E-06
  6.3513101053489973E-01  1.7546815196247972E-01  2.4474985791035238E-06
  6.4145863087887833E-01  1.7510954361800735E-01  2.4358951921695851E-06
  6.4784929141228775E-01  1.7474708537771086E-01  2.4252177190543838E-06
  6.5430362018568577E-01  1.7437309201893636E-01  2.4155298433589746E-06
  6.6082225150670915E-01  1.7400152466828950E-01  2.4068962203744826E-06
  6.6740582600241205E-01  1.7364875272628402E-01  2.3993810728225603E-06
  6.7405499068222563E-01  1.7328164979652072E-01  2.3930466159791269E-06
  6.8077039900154124E-01  1.7294442464896265E-01  2.3879516694201798E-06
  6.8755271092593095E-01  1.7259418304873150E-01  2.3841508221511349E-06
  6.9440259299600782E-01  1.7224774154959543E-01  2.3816942732352556E-06
  7.0132071839292842E-01  1.7188004159102946E-01  2.3806283358687954E-06
  7.0830776700455167E-01  1.7152525613714867E-01  2.3809964348324772E-06
  7.1536442549225721E-01  1.7114170102628709E-01  2.3828403666246719E-06
  7.2249138735842622E-01  1.7076812003926126E-01  2.3862016196676184E-06
  7.2968935301459625E-01  1.7039029443039272E-01  2.3911225703849187E-06
  7.3695902985029538E-01  1.7002049273057171E-01  2.3976473926351888E-06
  7.4430113230256334E-01  1.6964158912173125E-01  2.4058224770237826E-06
  7.5171638192616119E-01  1.6933798331365763E-01  2.4156962846188805E-06
  7.5920550746448445E-01  1.6902038673690617E-01  2.4273187437499566E-06
  7.6676924492118181E-01  1.6872747504488239E-01  2.4407404040022758E-06
  7.7440833763248684E-01  1.6841886988533142E-01  2.4560115406109151E-06
  7.8212353634026699E-01  1.6812583570733924E-01  2.4731815359470378E-06
  7.8991559926580923E-01  1.6777370012751380E-01  2.4922987111223449E-06
  7.9778529218433236E-01  1.6746927334213718E-01  2.5134106121537347E-06
  8.0573338850024223E-01  1.6710980324804212E-01  2.5365646397747338E-06
  8.1376066932314384E-01  1.6680696857536967E-01  2.5618088650761682E-06
  8.2186792354460403E-01  1.6647338724582991E-01  2.5891928622577888E-06
  8.3005594791567749E-01  1.6613290166025543E-01  2.6187683425090257E-06
  8.3832554712521423E-01  1.6581921560007282E-01  2.6505892295467643E-06
  8.4667753387893863E-01  1.6550364685459690E-01  2.6847108189826967E-06
  8.5511272897931556E-01  1.6520183483444900E-01  2.7211878618689112E-06
  8.6363196140622578E-01  1.6487312559805400E-01  2.7600716940377057E-06
  8.7223606839842327E-01  1.6456305269218416E-01  2.8014066717339919E-06
  8.8092589553582124E-01  1.6426658911160508E-01  2.8452265163332578E-06
  8.8970229682259849E-01  1.6394975214268284E-01  2.8915512014684959E-06
  8.9856613477111547E-01  1.6362064629204981E-01  2.9403847745958659E-06
  9.0751828048668914E-01  1.6332002361758774E-01  2.9917141983633552E-06
  9.1655961375319805E-01  1.6300685707386217E-01  3.0455090189799635E-06
  9.2569102311954210E-01  1.6266122725636781E-01  3.1017214962600958E-06
  9.3491340598697059E-01  1.6234127205031035E-01  3.1602868925319726E-06
  9.4422766869727337E-01  1.6200677213612907E-01  3.2211238652920650E-06
  9.5363472662184945E-01  1.6170520975772668E-01  3.2841348984188127E-06
  9.6313550425167249E-01  1.6138557205720788E-01  3.3492069662255612E-06
  9.7273093528814325E-01  1.6107566321045960E-01  3.4162127903705757E-06
  9.8242196273484739E-01  1.6076769879975628E-01  3.4850125044650737E-06
  9.9220953899023612E-01  1.6045494568097016E-01  3.5554553884383824E-06
  1.0020946259412220E+00  1.6009483295504226E-01  3.6273814847478835E-06
  1.0120781950577056E+00  1.5980076642371721E-01  3.7006226854548976E-06
  1.0221612274880556E+00  1.5943336529361532E-01  3.7750030100688938E-06
  1.0323447141555275E+00  1.5908083280813057E-01  3.8503380346558321E-06
  1.0426296558556458E+00  1.5874110843911049E-01  3.9264336474733855E-06
  1.0530170633545679E+00  1.5838973853496408E-01  4.0030844912922395E-06
  1.0635079574884068E+00  1.5804647958700205E-01  4.0800724693273250E-06
  1.0741033692635595E+00  1.5770698056546004E-01  4.1571659230953691E-06
  1.0848043399580385E+00  1.5737751216275425E-01  4.2341200001559247E-06
  1.0956119212237900E+00  1.5703856352113596E-01  4.3106785212054237E-06
  1.1065271751900585E+00  1.5665364177644206E-01  4.3865775381724670E-06
  1.1175511745677644E+00  1.5634341569472746E-01  4.4615505859219263E-06
