 #p(MeV) \t \delta f_\\nu \t \delta f_\\nubar
  6.1259233728594236E+00  1.1763373698086803E-11  1.1378035742250217E-11
  6.1869541156775325E+00  1.1573084696138500E-11  1.1191104283461217E-11
  6.2485928895372007E+00  1.1386156670436935E-11  1.1007487223633467E-11
  6.3108457520698913E+00  1.1202531206103916E-11  1.0827126755910631E-11
  6.3737188212574241E+00  1.1022152722310518E-11  1.0649967859739599E-11
  6.4372182760332572E+00  1.0844966744375507E-11  1.0475956606374882E-11
  6.5013503568897040E+00  1.0670919566479202E-11  1.0305039829212645E-11
  6.5661213664912381E+00  1.0499958245052453E-11  1.0137165117274801E-11
  6.6315376702939037E+00  1.0332030592596935E-11  9.9722808091035189E-12
  6.6976056971708671E+00  1.0167085171887187E-11  9.8103359870175631E-12
  6.7643319400442481E+00  1.0005071290508116E-11  9.6512804716851225E-12
  6.8317229565231994E+00  9.8459389956853663E-12  9.4950648169717078E-12
  6.8997853695483728E+00  9.6896390693692800E-12  9.3416403050245410E-12
  6.9685258680428062E+00  9.5361230235361752E-12  9.1909589415579906E-12
  7.0379512075692654E+00  9.3853430956736720E-12  9.0429734513079674E-12
  7.1080682109941824E+00  9.2372504897837777E-12  8.8976355736201116E-12
  7.1788837691581557E+00  9.0917869795980089E-12  8.7548879331502369E-12
  7.2504048415531663E+00  8.9488921148105193E-12  8.6146710290939469E-12
  7.3226384570065468E+00  8.8085071160663540E-12  8.4769270081636290E-12
  7.3955917143717205E+00  8.6705748281972767E-12  8.3415996183688280E-12
  7.4692717832258761E+00  8.5350396699846817E-12  8.2086341594651562E-12
  7.5436859045745459E+00  8.4018475860064257E-12  8.0779774354486070E-12
  7.6188413915632385E+00  8.2709460004643368E-12  7.9495777089937854E-12
  7.6947456301961523E+00  8.1422837728945342E-12  7.8233846577397731E-12
  7.7714060800620208E+00  8.0158111556678713E-12  7.6993493323322016E-12
  7.8488302750672494E+00  7.8914797531919487E-12  7.5774241161346706E-12
  7.9270258241762868E+00  7.7692424827310747E-12  7.4575626865269770E-12
  8.0060004121594144E+00  7.6490540272008238E-12  7.3397204499917613E-12
  8.0857618003480010E+00  7.5308784095386383E-12  7.2238618337224234E-12
  8.1663178273972203E+00  7.4146869748126505E-12  7.1099583311280581E-12
  8.2476764100564388E+00  7.3004514981250971E-12  6.9979818590703407E-12
  8.3298455439472185E+00  7.1881439766089378E-12  6.8879045575245772E-12
  8.4128333043491086E+00  7.0777366344048652E-12  6.7796987944616611E-12
  8.4966478469932643E+00  6.9692019275609457E-12  6.6733371706440971E-12
  8.5812974088639358E+00  6.8625125488398645E-12  6.5687925243216826E-12
  8.6667903090080056E+00  6.7576414324197890E-12  6.4660379358132089E-12
  8.7531349493525106E+00  6.6545617584768614E-12  6.3650467319626587E-12
  8.8403398155303829E+00  6.5532469576381232E-12  6.2657924904591089E-12
  8.9284134777143898E+00  6.4536707152953994E-12  6.1682490440111756E-12
  9.0173645914593497E+00  6.3558069494427048E-12  6.0723904592865629E-12
  9.1072018985527912E+00  6.2596274077209557E-12  5.9781887421721981E-12
  9.1979342278740646E+00  6.1650998822098298E-12  5.8856121353127277E-12
  9.2895704962619945E+00  6.0721923775992280E-12  5.7946291057908534E-12
  9.3821197093912190E+00  5.9808735829876770E-12  5.7052087961492697E-12
  9.4755909626572006E+00  5.8911128552138789E-12  5.6173210079633400E-12
  9.5699934420701283E+00  5.8028802029057027E-12  5.5309361861121417E-12
  9.6653364251576477E+00  5.7161462712058953E-12  5.4460254037079875E-12
  9.7616292818766386E+00  5.6308823271362938E-12  5.3625603476470140E-12
  9.8588814755340728E+00  5.5470602455644206E-12  5.2805133047451789E-12
  9.9571025637170116E+00  5.4646524957383263E-12  5.1998571484264654E-12
  1.0056302199231890E+01  5.3836321283575622E-12  5.1205653259316719E-12
  1.0156490131053182E+01  5.3039727631673732E-12  5.0426118460340130E-12
  1.0257676205281468E+01  5.2256495084333230E-12  4.9659721542456480E-12
  1.0359870366111096E+01  5.1486422688980747E-12  4.8906262860332064E-12
  1.0463082656807433E+01  5.0729324302003363E-12  4.8165556996077764E-12
  1.0567323220693913E+01  4.9985015221504983E-12  4.7437419983641175E-12
  1.0672602302148855E+01  4.9253312215098365E-12  4.6721669336123231E-12
  1.0778930247612259E+01  4.8534033552447498E-12  4.6018124077569467E-12
  1.0886317506602618E+01  4.7826999038299001E-12  4.5326604775141844E-12
  1.0994774632743852E+01  4.7132030045803437E-12  4.4646933571475125E-12
  1.1104312284802470E+01  4.6448949549941494E-12  4.3978934217039433E-12
  1.1214941227735103E+01  4.5777582160886212E-12  4.3322432102344225E-12
  1.1326672333746407E+01  4.5117754157150169E-12  4.2677254289837905E-12
  1.1439516583357582E+01  4.4469293518376556E-12  4.2043229545364541E-12
  1.1553485066485452E+01  4.3832026695368752E-12  4.1420185260968699E-12
  1.1668588983532395E+01  4.3205736824625134E-12  4.0807907611153191E-12
  1.1784839646487029E+01  4.2590178592408338E-12  4.0206155787743599E-12
  1.1902248480035929E+01  4.1985112450197216E-12  3.9614694680659656E-12
  1.2020827022686429E+01  4.1390305243916756E-12  3.9033295473529173E-12
  1.2140586927900541E+01  4.0805530020354658E-12  3.8461735453058692E-12
  1.2261539965240232E+01  4.0230565841745515E-12  3.7899797826391004E-12
  1.2383698021524120E+01  3.9665197608120295E-12  3.7347271546052107E-12
  1.2507073101995614E+01  3.9109215887036021E-12  3.6803951142110962E-12
  1.2631677331502797E+01  3.8562416750321384E-12  3.6269636561193249E-12
  1.2757522955689963E+01  3.8024601617491822E-12  3.5744133012008782E-12
  1.2884622342201128E+01  3.7495577105505521E-12  3.5227250817069927E-12
  1.3012987981895426E+01  3.6975155077960735E-12  3.4718805457179730E-12
  1.3142632490074680E+01  3.6463171799570141E-12  3.4218635919790548E-12
  1.3273568607723226E+01  3.5959501866339604E-12  3.3726617953360493E-12
  1.3405809202759977E+01  3.5464024811217090E-12  3.3242632074847773E-12
  1.3539367271303096E+01  3.4976621332058654E-12  3.2766559964514445E-12
  1.3674255938947191E+01  3.4497173300085548E-12  3.2298284474235906E-12
  1.3810488462053222E+01  3.4025563768717287E-12  3.1837689636122821E-12
  1.3948078229051339E+01  3.3561676982684829E-12  3.1384660671362138E-12
  1.4087038761756583E+01  3.3105398387335210E-12  3.0939083999191217E-12
  1.4227383716697831E+01  3.2656614638046432E-12  3.0500847245926101E-12
  1.4369126886459854E+01  3.2215213609678541E-12  3.0069839253972256E-12
  1.4512282201038808E+01  3.1781084405992660E-12  2.9645950090752163E-12
  1.4656863729211270E+01  3.1354117369454938E-12  2.9229071057935113E-12
  1.4802885679916809E+01  3.0934199993601394E-12  2.8819090726725121E-12
  1.4950362403654395E+01  3.0521201144423632E-12  2.8415879792921875E-12
  1.5099308393892773E+01  3.0114986546985150E-12  2.8019306025368263E-12
  1.5249738288494736E+01  2.9715424968549954E-12  2.7629240189530642E-12
  1.5401666871155765E+01  2.9322388138702075E-12  2.7245555968755713E-12
  1.5555109072856844E+01  2.8935750672582146E-12  2.6868129888564575E-12
  1.5710079973331894E+01  2.8555389997140706E-12  2.6496841243884062E-12
  1.5866594802549681E+01  2.8181186280263264E-12  2.6131572029072326E-12
  1.6024668942210607E+01  2.7813022362627793E-12  2.5772206870603198E-12
  1.6184317927258373E+01  2.7450783692164135E-12  2.5418632962279148E-12
  1.6345557447406659E+01  2.7094358260989577E-12  2.5070740002851907E-12
  1.6508403348681071E+01  2.6743636544702480E-12  2.4728420135932502E-12
  1.6672871634976442E+01  2.6398512309504689E-12  2.4391568726832308E-12
  1.6838978469629613E+01  2.6058893413006250E-12  2.4060094681567338E-12
  1.7006740177007931E+01  2.5724697487501560E-12  2.3733916267889913E-12
  1.7176173244113510E+01  2.5395843367353293E-12  2.3412952939294029E-12
  1.7347294322203570E+01  2.5072250913502047E-12  2.3097125168474477E-12
  1.7520120228426791E+01  2.4753841007733168E-12  2.2786354441520050E-12
  1.7694667947476095E+01  2.4440535547076435E-12  2.2480563252216714E-12
  1.7870954633257828E+01  2.4132257438317293E-12  2.2179675096440041E-12
  1.8048997610577565E+01  2.3828930592598834E-12  2.1883614466616988E-12
  1.8228814376842731E+01  2.3530479920096692E-12  2.1592306846239446E-12
  1.8410422603782216E+01  2.3236831324749374E-12  2.1305678704412932E-12
  1.8593840139183033E+01  2.2947911699029196E-12  2.1023657490426253E-12
  1.8779085008644365E+01  2.2663648697022447E-12  2.0746171423815016E-12
  1.8966175417349064E+01  2.2383960926147118E-12  2.0473140403240972E-12
  1.9155129751852773E+01  2.2108754552844508E-12  2.0204472874016608E-12
  1.9345966581890881E+01  2.1837936909916231E-12  1.9940078483048289E-12
  1.9538704662203486E+01  2.1571417537786136E-12  1.9679869045192845E-12
  1.9733362934378597E+01  2.1309108125790393E-12  1.9423758485622855E-12
  1.9929960528713558E+01  2.1050922455268233E-12  1.9171662783956138E-12
  2.0128516766095153E+01  2.0796776344391047E-12  1.8923499920088611E-12
  2.0329051159898405E+01  2.0546587594672006E-12  1.8679189821673562E-12
  2.0531583417904244E+01  2.0300275939099124E-12  1.8438654313190824E-12
  2.0736133444236309E+01  2.0057762991837277E-12  1.8201817066552510E-12
  2.0942721341317103E+01  1.9818972199446387E-12  1.7968603553193379E-12
  2.1151367411843552E+01  1.9583828795806581E-12  1.7738940999544057E-12
  2.1362092160782261E+01  1.9352263521975809E-12  1.7512761773429166E-12
  2.1574916297384679E+01  1.9124220646650104E-12  1.7290010696781754E-12
  2.1789860737222376E+01  1.8899647738906346E-12  1.7070635673137984E-12
  2.2006946604242472E+01  1.8678493123137143E-12  1.6854585353020272E-12
  2.2226195232843644E+01  1.8460705870701298E-12  1.6641809125525284E-12
  2.2447628169972859E+01  1.8246235791691159E-12  1.6432257110018259E-12
  2.2671267177242829E+01  1.8035033426811593E-12  1.6225880147929728E-12
  2.2897134233070695E+01  1.7827050039366361E-12  1.6022629794649830E-12
  2.3125251534838036E+01  1.7622237607347379E-12  1.5822458311515924E-12
  2.3355641501072306E+01  1.7420548815623366E-12  1.5625318657890451E-12
  2.3588326773650007E+01  1.7221937048224227E-12  1.5431164483324808E-12
  2.3823330220021894E+01  1.7026356380717706E-12  1.5239950119806537E-12
  2.4060674935460344E+01  1.6833760888538245E-12  1.5051629954069612E-12
  2.4300384245328971E+01  1.6644099571115491E-12  1.4866153827651299E-12
  2.4542481707375018E+01  1.6457319491408142E-12  1.4683469901563772E-12
  2.4786991114044561E+01  1.6273368777443104E-12  1.4503527384240919E-12
  2.5033936494820672E+01  1.6092196621371770E-12  1.4326276528841621E-12
  2.5283342118584951E+01  1.5913753255204274E-12  1.4151668609395417E-12
  2.5535232496002667E+01  1.5737989927195588E-12  1.3979655897586341E-12
  2.5789632381931494E+01  1.5564858878863905E-12  1.3810191640155631E-12
  2.6046566777854334E+01  1.5394313322621361E-12  1.3643230036903517E-12
  2.6306060934336386E+01  1.5226307419998385E-12  1.3478726219272335E-12
  2.6568140353506728E+01  1.5060796260444215E-12  1.3316636229492879E-12
  2.6832830791564469E+01  1.4897735840685580E-12  1.3156917000276762E-12
  2.7100158261310032E+01  1.4737082928154636E-12  1.2999526232309125E-12
  2.7370149034701647E+01  1.4578791938446996E-12  1.2844419633451525E-12
  2.7642829645437150E+01  1.4422814707896756E-12  1.2691550726583169E-12
  2.7918226891561680E+01  1.4269104004972398E-12  1.2540873966812782E-12
  2.8196367838101324E+01  1.4117613698707362E-12  1.2392344888959076E-12
  2.8477279819722920E+01  1.3968298730193955E-12  1.2245920079697401E-12
  2.8760990443420386E+01  1.3821115084950580E-12  1.2101557150555704E-12
  2.9047527591227880E+01  1.3676019766132636E-12  1.1959214711730859E-12
  2.9336919422959962E+01  1.3532970768559126E-12  1.1818852346697660E-12
  2.9629194378978966E+01  1.3391927053527655E-12  1.1680430587583740E-12
  2.9924381182990043E+01  1.3252848524391437E-12  1.1543910891284338E-12
  3.0222508844864088E+01  1.3115696002873108E-12  1.1409255616292138E-12
  3.0523606663488611E+01  1.2980431209819370E-12  1.1276428003569030E-12
  3.0827704229647175E+01  1.2847018554822130E-12  1.1145393735928045E-12
  3.1134831428927505E+01  1.2715427884106269E-12  1.1016123316707891E-12
  3.1445018444658523E+01  1.2585630350149816E-12  1.0888588449172884E-12
  3.1758295760876535E+01  1.2457597631187107E-12  1.0762761353068697E-12
  3.2074694165321262E+01  1.2331301920471689E-12  1.0638614754055700E-12
  3.2394244752461489E+01  1.2206715915838848E-12  1.0516121873428588E-12
  3.2716978926550823E+01  1.2083812809557902E-12  1.0395256418112389E-12
  3.3042928404714097E+01  1.1962566278464948E-12  1.0275992570925902E-12
  3.3372125220064405E+01  1.1842950474367013E-12  1.0158304981103402E-12
  3.3704601724851109E+01  1.1724940014709132E-12  1.0042168755066232E-12
  3.4040390593639380E+01  1.1608509973495693E-12  9.9275594474359132E-13
  3.4379524826521326E+01  1.1493635872458232E-12  9.8144530522807363E-13
  3.4722037752359142E+01  1.1380293693591361E-12  9.7028260045809233E-13
  3.5067963032060391E+01  1.1268459913155500E-12  9.5926551915266394E-13
  3.5417334661886301E+01  1.1158111448816099E-12  9.4839179284285569E-13
  3.5770186976792672E+01  1.1049225627394724E-12  9.3765919317484331E-13
  3.6126554653804170E+01  1.0941780176117724E-12  9.2706553105267588E-13
  3.6486472715422266E+01  1.0835753214806642E-12  9.1660865586991061E-13
  3.6849976533067228E+01  1.0731123248277748E-12  9.0628645476107272E-13
  3.7217101830554128E+01  1.0627869158944572E-12  8.9609685187226989E-13
  3.7587884687603747E+01  1.0525970199616876E-12  8.8603780765039363E-13
  3.7962361543388347E+01  1.0425405986490396E-12  8.7610731815028644E-13
  3.8340569200112803E+01  1.0326156492321785E-12  8.6630341435932976E-13
  3.8722544826631228E+01  1.0228202039782904E-12  8.5662416153888622E-13
  3.9108325962100061E+01  1.0131523128580532E-12  8.4706764494065278E-13
  3.9497950519667064E+01  1.0036097296690895E-12  8.3763170876595971E-13
  3.9891456790197346E+01  9.9418994601743857E-13  8.2831398464848498E-13
  4.0288883446036451E+01  9.8489049798950535E-13  8.1911214965373319E-13
  4.0690269544811002E+01  9.7570897749937762E-13  8.1002393576279335E-13
  4.1095654533266988E+01  9.6664303090883116E-13  8.0104712852946513E-13
  4.1505078251146571E+01  9.5769035769033504E-13  7.9217956577836023E-13
  4.1918580935103378E+01  9.4884870913164260E-13  7.8341913634259551E-13
  4.2336203222656799E+01  9.4011588708056963E-13  7.7476377883968232E-13
  4.2757986156185567E+01  9.3148974272861648E-13  7.6621148048429093E-13
  4.3183971186961465E+01  9.2296817543212736E-13  7.5776027593660943E-13
  4.3614200179222898E+01  9.1454913156975668E-13  7.4940824618506345E-13
  4.4048715414289127E+01  9.0623060504549882E-13  7.4115351872705921E-13
  4.4487559594715528E+01  8.9801088710644483E-13  7.3299446976760446E-13
  4.4930775848490349E+01  8.8988883950428113E-13  7.2492994592774975E-13
  4.5378407733273029E+01  8.8186340803974489E-13  7.1695886486987817E-13
  4.5830499240674925E+01  8.7393355030642793E-13  7.0908015564612426E-13
  4.6287094800582736E+01  8.6609823558842328E-13  7.0129275859135452E-13
  4.6748239285524825E+01  8.5835644476318574E-13  6.9359562522029196E-13
  4.7213978015081025E+01  8.5070717020934410E-13  6.8598771812854450E-13
  4.7684356760336712E+01  8.4314941571924110E-13  6.7846801089728354E-13
  4.8159421748380900E+01  8.3568219641595766E-13  6.7103548800134825E-13
  4.8639219666849215E+01  8.2830453867463283E-13  6.6368914472055224E-13
  4.9123797668512204E+01  8.2101548004783817E-13  6.5642798705397962E-13
  4.9613203375909485E+01  8.1381406919484613E-13  6.4925103163706527E-13
  5.0107484886029702E+01  8.0669929160020503E-13  6.4215724673723918E-13
  5.0606690775037414E+01  7.9966974658354336E-13  6.3514529449955729E-13
  5.1110870103047041E+01  7.9272392509043170E-13  6.2821375498120001E-13
  5.1620072418944282E+01  7.8586034943215227E-13  6.2136123908498175E-13
  5.2134347765255391E+01  7.7907757272939796E-13  6.1458638799391775E-13
  5.2653746683065528E+01  7.7237417821172225E-13  6.0788787248763713E-13
  5.3178320216985540E+01  7.6574877854107876E-13  6.0126439228104246E-13
  5.3708119920168407E+01  7.5920001515856459E-13  5.9471467538432634E-13
  5.4243197859375769E+01  7.5272655765354435E-13  5.8823747748353656E-13
  5.4783606620094908E+01  7.4632710315434871E-13  5.8183158134088441E-13
  5.5329399311706531E+01  7.4000037573978269E-13  5.7549579621403545E-13
  5.5880629572704201E+01  7.3374512587068645E-13  5.6922895729362758E-13
  5.6437351575965870E+01  7.2756014353531216E-13  5.6302993598489899E-13
  5.6999620034077559E+01  7.2144447416323902E-13  5.5689781160693961E-13
  5.7567490204710424E+01  7.1539737222134933E-13  5.5083183319903173E-13
  5.8141017896051359E+01  7.0941810746159739E-13  5.4483126350771332E-13
  5.8720259472287516E+01  7.0350595848944114E-13  5.3889537375013606E-13
  5.9305271859145542E+01  6.9766021266451594E-13  5.3302344351117346E-13
  5.9896112549486055E+01  6.9188016600930049E-13  5.2721476064695483E-13
  6.0492839608953979E+01  6.8616512312537024E-13  5.2146862119443999E-13
  6.1095511681684776E+01  6.8051439711686512E-13  5.1578432928664585E-13
  6.1704187996067894E+01  6.7492730952080734E-13  5.1016119707315883E-13
  6.2318928370567605E+01  6.6940319024392336E-13  5.0459854464557332E-13
  6.2939793219601647E+01  6.6394137750565234E-13  4.9909569996753731E-13
  6.3566843559478379E+01  6.5854121702296910E-13  4.9365199818837597E-13
  6.4200141014393566E+01  6.5320195242818111E-13  4.8826669368084793E-13
  6.4839747822486416E+01  6.4792261689828524E-13  4.8293887434110593E-13
  6.5485726841955923E+01  6.4270223638360390E-13  4.7766762572259787E-13
  6.6138141557238697E+01  6.3753985686517221E-13  4.7245205288996201E-13
  6.6797056085247817E+01  6.3243454391131987E-13  4.6729127998306410E-13
  6.7462535181673815E+01  6.2738538225028176E-13  4.6218444979550100E-13
  6.8134644247348973E+01  6.2239147535824885E-13  4.5713072336699836E-13
  6.8813449334674544E+01  6.1745194506233837E-13  4.5212927958915866E-13
  6.9499017154111783E+01  6.1256593115794562E-13  4.4717931482403827E-13
  7.0191415080738849E+01  6.0773259103996483E-13  4.4228004253502020E-13
  7.0890711160871248E+01  6.0295109934740963E-13  4.3743069292951704E-13
  7.1596974118749515E+01  5.9822064762066639E-13  4.3263051261284532E-13
  7.2310273363293746E+01  5.9354048284461307E-13  4.2787879406506787E-13
  7.3030678994923804E+01  5.8891005555897430E-13  4.2317498831579204E-13
  7.3758261812449391E+01  5.8432888185421339E-13  4.1851859779505841E-13
  7.4493093320027555E+01  5.7979648433569923E-13  4.1390913086359786E-13
  7.5235245734189675E+01  5.7531239203675675E-13  4.0934610171838966E-13
  7.5984791990939058E+01  5.7087614034961760E-13  4.0482903031202585E-13
  7.6741805752918609E+01  5.6648727095924218E-13  4.0035744227426673E-13
  7.7506361416649881E+01  5.6214533177991784E-13  3.9593086883568570E-13
  7.8278534119844963E+01  5.5784987689456563E-13  3.9154884675331612E-13
  7.9058399748790478E+01  5.5360046649668474E-13  3.8721091823822132E-13
  7.9846034945805243E+01  5.4939666683487459E-13  3.8291663088490636E-13
  8.0641517116772789E+01  5.4523805015986012E-13  3.7866553760248213E-13
  8.1444924438748302E+01  5.4112419364773265E-13  3.7445719577607455E-13
  8.2256335867641369E+01  5.3705466774816370E-13  3.7029115899157073E-13
  8.3075831145975968E+01  5.3302904103680251E-13  3.6616698081139194E-13
  8.3903490810726936E+01  5.2904688844152912E-13  3.6208422044816895E-13
  8.4739396201234626E+01  5.2510779129322129E-13  3.5804244275098403E-13
  8.5583629467199501E+01  5.2121133726281820E-13  3.5404121812427424E-13
  8.6436273576754402E+01  5.1735712030046997E-13  3.5008012244814198E-13
  8.7297412324618875E+01  5.1354474057675005E-13  3.4615873700001349E-13
  8.8167130340334708E+01  5.0977380442592502E-13  3.4227664837762772E-13
  8.9045513096581914E+01  5.0604392429127139E-13  3.3843344842332481E-13
  8.9932646917579603E+01  5.0235471867243493E-13  3.3462873414958771E-13
  9.0828618987569257E+01  4.9870581207482816E-13  3.3086210766582405E-13
