 #p(MeV) \t \delta f_\\nu \t \delta f_\\nubar
  1.0346162845220610E+00  2.7077123388005855E-06  1.3863342361380169E-06
  1.0449238571985078E+00  2.6437334755081416E-06  1.3628210645637511E-06
  1.0553341211394063E+00  2.5814115905085106E-06  1.3396807872418901E-06
  1.0658480994271189E+00  2.5206984222433283E-06  1.3169080925890413E-06
  1.0764668253366696E+00  2.4615473289199276E-06  1.2944977401415427E-06
  1.0871913424372945E+00  2.4039132582544432E-06  1.2724445886017318E-06
  1.0980227046949966E+00  2.3477526499966408E-06  1.2507435617108619E-06
  1.1089619765761274E+00  2.2930234108428947E-06  1.2293896530675323E-06
  1.1200102331519990E+00  2.2396848375700844E-06  1.2083779203353820E-06
  1.1311685602045363E+00  2.1876975436963232E-06  1.1877034763260926E-06
  1.1424380543329862E+00  2.1370234104521843E-06  1.1673614887235361E-06
  1.1538198230616852E+00  2.0876255399328100E-06  1.1473471798345231E-06
  1.1653149849489031E+00  2.0394682102360073E-06  1.1276558263308965E-06
  1.1769246696967730E+00  1.9925168324906269E-06  1.1082827589832475E-06
  1.1886500182623101E+00  1.9467379096847085E-06  1.0892233623865756E-06
  1.2004921829695461E+00  1.9020989971996654E-06  1.0704730746703617E-06
  1.2124523276227703E+00  1.8585686622994640E-06  1.0520273846883204E-06
  1.2245316276209059E+00  1.8161164295966463E-06  1.0338818143749506E-06
  1.2367312700730262E+00  1.7747128356980811E-06  1.0160319809611438E-06
  1.2490524539150150E+00  1.7343294898483490E-06  9.9847365488508631E-07
  1.2614963900273979E+00  1.6949389006150913E-06  9.8120267241667856E-07
  1.2740643013543393E+00  1.6565144030474616E-06  9.6421491215902441E-07
  1.2867574230238310E+00  1.6190301301485904E-06  9.4750629495604502E-07
  1.2995770024690771E+00  1.5824609857602626E-06  9.3107278393189117E-07
  1.3125242995510831E+00  1.5467826185043565E-06  9.1491038451462397E-07
  1.3256005866824760E+00  1.5119713967338817E-06  8.9901514444456056E-07
  1.3388071489525475E+00  1.4780043844489911E-06  8.8338315376769091E-07
  1.3521452842535486E+00  1.4448593181372875E-06  8.6801054481635692E-07
  1.3656163034082460E+00  1.4125145850361040E-06  8.5289349269194907E-07
  1.3792215302987383E+00  1.3809492113222070E-06  8.3802822430111668E-07
  1.3929623019965682E+00  1.3501427970974362E-06  8.2341098638667400E-07
  1.4068399688941207E+00  1.3200753418514575E-06  8.0903794368220044E-07
  1.4208558948373360E+00  1.2907273216558706E-06  7.9490524735885258E-07
  1.4350114572597461E+00  1.2620797849358968E-06  7.8100910100935834E-07
  1.4493080473178379E+00  1.2341143395621686E-06  7.6734576328972469E-07
  1.4637470700277784E+00  1.2068131341877680E-06  7.5391154722832573E-07
  1.4783299444034870E+00  1.1801588402889997E-06  7.4070281954150447E-07
  1.4930581035960955E+00  1.1541346348800335E-06  7.2771599995563088E-07
  1.5079329950347935E+00  1.1287241838730094E-06  7.1494756053560495E-07
  1.5229560805690732E+00  1.1039116260564454E-06  7.0239402501971487E-07
  1.5381288366123957E+00  1.0796815575794196E-06  6.9005196807679858E-07
  1.5534527542872900E+00  1.0560190140643860E-06  6.7791801178427036E-07
  1.5689293395718904E+00  1.0329094543973219E-06  6.6598882278467392E-07
  1.5845601134479441E+00  1.0103387728485554E-06  6.5426113155405384E-07
  1.6003466120502816E+00  9.8829328380551035E-07  6.4273172983691324E-07
  1.6162903868177878E+00  9.6675968917814944E-07  6.3139745704037614E-07
  1.6323930046458679E+00  9.4572506407735526E-07  6.2025519840417990E-07
  1.6486560480404371E+00  9.2517684506953814E-07  6.0930188444087428E-07
  1.6650811152734457E+00  9.0510281884779547E-07  5.9853449038081186E-07
  1.6816698205399485E+00  8.8549111130259032E-07  5.8795003562168887E-07
  1.6984237941167415E+00  8.6633017697613946E-07  5.7754558318263264E-07
  1.7153446825225838E+00  8.4760878888538274E-07  5.6731823916285685E-07
  1.7324341486800059E+00  8.2931602871691477E-07  5.5726515222221883E-07
  1.7496938720787412E+00  8.1144127800567607E-07  5.4738351369057141E-07
  1.7671255489407731E+00  7.9397421047782037E-07  5.3767055833231928E-07
  1.7847308923870415E+00  7.7690479919966564E-07  5.2812357580167162E-07
  1.8025116326057959E+00  7.6022331265578393E-07  5.1873991317297244E-07
  1.8204695170226330E+00  7.4392028171469662E-07  5.0951695643742967E-07
  1.8386063104722308E+00  7.2798648995190438E-07  5.0045212848044079E-07
  1.8569237953717859E+00  7.1241296625108658E-07  4.9154288874536741E-07
  1.8754237718961835E+00  6.9719097755067270E-07  4.8278673284057072E-07
  1.8941080581549157E+00  6.8231202183112006E-07  4.7418119214736183E-07
  1.9129784903707525E+00  6.6776782133391239E-07  4.6572383342894468E-07
  1.9320369230602066E+00  6.5355031600367258E-07  4.5741225844045518E-07
  1.9512852292157785E+00  6.3965165714236407E-07  4.4924410353748791E-07
  1.9707253004900387E+00  6.2606420111606488E-07  4.4121703913522583E-07
  1.9903590473815229E+00  6.1278050539179974E-07  4.3332877112411269E-07
  2.0101883994224923E+00  5.9979333184405553E-07  4.2557704803445578E-07
  2.0302153053685648E+00  5.8709568403258236E-07  4.1795968749876841E-07
  2.0504417333902234E+00  5.7468080283264927E-07  4.1047457504171121E-07
  2.0708696712662467E+00  5.6254210082517902E-07  4.0311962561689874E-07
  2.0915011265790606E+00  5.5067315251555485E-07  3.9589278021886019E-07
  2.1123381269120318E+00  5.3906769005117705E-07  3.8879200576194525E-07
  2.1333827200487363E+00  5.2771959906413966E-07  3.8181529495310348E-07
  2.1546369741742022E+00  5.1662291463489954E-07  3.7496066615879173E-07
  2.1761029780781711E+00  5.0577181737295679E-07  3.6822616326624063E-07
  2.1977828413603691E+00  4.9516062961075422E-07  3.6160985553935688E-07
  2.2196786946378317E+00  4.8478381171216766E-07  3.5510983747433268E-07
  2.2417926897543015E+00  4.7463595714704287E-07  3.4872422739135992E-07
  2.2641269999916900E+00  4.6471177739444993E-07  3.4245115705965279E-07
  2.2866838202836686E+00  4.5500604227594241E-07  3.3628873133095716E-07
  2.3094653674313803E+00  4.4551353242846132E-07  3.3023500144985157E-07
  2.3324738803212886E+00  4.3622914374525955E-07  3.2428803843835345E-07
  2.3557116201452200E+00  4.2714790786200520E-07  3.1844594852064666E-07
  2.3791808706225726E+00  4.1826498814472625E-07  3.1270687246358058E-07
  2.4028839382247642E+00  4.0957567579949224E-07  3.0706898492363758E-07
  2.4268231524018931E+00  4.0107538610951165E-07  3.0153049380665241E-07
  2.4510008658116726E+00  3.9275965479502718E-07  2.9608963964002425E-07
  2.4754194545506456E+00  3.8462413449159010E-07  2.9074469495716682E-07
  2.5000813183876898E+00  3.7666459134918691E-07  2.8549396370048966E-07
  2.5249888809998629E+00  3.6887690242722393E-07  2.8033578129535655E-07
  2.5501445902105964E+00  3.6125705933170246E-07  2.7526852034244317E-07
  2.5755509182302498E+00  3.5380119869081319E-07  2.7029061634908147E-07
  2.6012103618990801E+00  3.4650566554788367E-07  2.6540061261068246E-07
  2.6271254429326114E+00  3.3936693368734198E-07  2.6059710301038469E-07
  2.6532987081694719E+00  3.3238155667116741E-07  2.5587869931899963E-07
  2.6797327298216764E+00  3.2554616533606875E-07  2.5124403068975362E-07
  2.7064301057274198E+00  3.1885746600511513E-07  2.4669174359582856E-07
  2.7333934596063862E+00  3.1231223874346288E-07  2.4222050176259681E-07
  2.7606254413175892E+00  3.0590733565695689E-07  2.3782898609475978E-07
  2.7881287271197968E+00  2.9963967923242701E-07  2.3351589459859858E-07
  2.8159060199345460E+00  2.9350626071762561E-07  2.2927994229865672E-07
  2.8439600496117672E+00  2.8750413833275946E-07  2.2511986094854867E-07
  2.8722935731980761E+00  2.8163043292035942E-07  2.2103439628440171E-07
  2.9009093752077129E+00  2.7588231266969472E-07  2.1702229629205432E-07
  2.9298102678962064E+00  2.7025694274357254E-07  2.1308227477901129E-07
  2.9589990915367421E+00  2.6475150593966324E-07  2.0921302969768315E-07
  2.9884787146992982E+00  2.5936325283813085E-07  2.0541328082898548E-07
  3.0182520345325616E+00  2.5408950299460849E-07  2.0168177156711072E-07
  3.0483219770486412E+00  2.4892764303585847E-07  1.9801726847411003E-07
  3.0786914974106301E+00  2.4387512481323425E-07  1.9441856084302252E-07
  3.1093635802230311E+00  2.3892946361201973E-07  1.9088446026938891E-07
  3.1403412398250659E+00  2.3408823641479577E-07  1.8741380023098748E-07
  3.1716275205869153E+00  2.2934908021713957E-07  1.8400543567572051E-07
  3.2032254972089143E+00  2.2470969042262081E-07  1.8065824264523675E-07
  3.2351382750237163E+00  2.2016782009608623E-07  1.7737111868303512E-07
  3.2673689903014744E+00  2.1572128299254020E-07  1.7414298653056580E-07
  3.2999208105580613E+00  2.1136797904216135E-07  1.7097281506029807E-07
  3.3327969348663697E+00  2.0710590552895548E-07  1.6785962743539449E-07
  3.3660005941706923E+00  2.0293311106137478E-07  1.6480246654264834E-07
  3.3995350516042557E+00  1.9884768665506842E-07  1.6180038896502452E-07
  3.4334036028099102E+00  1.9484776479033054E-07  1.5885246485914566E-07
  3.4676095762640076E+00  1.9093151849191629E-07  1.5595777783189471E-07
  3.5021563336035118E+00  1.8709716043016965E-07  1.5311542481586140E-07
  3.5370472699563753E+00  1.8334294204292395E-07  1.5032451594372629E-07
  3.5722858142751952E+00  1.7966715267766112E-07  1.4758417442167553E-07
  3.6078754296741953E+00  1.7606811875344596E-07  1.4489353640200283E-07
  3.6438196137695686E+00  1.7254420280081113E-07  1.4225175071887545E-07
  3.6801218990232201E+00  1.6909380124698301E-07  1.3965797743598510E-07
  3.7167858530899101E+00  1.6571533242818176E-07  1.3711137847319205E-07
  3.7538150791678753E+00  1.6240721000927901E-07  1.3461109743262250E-07
  3.7912132163529475E+00  1.5916787077544140E-07  1.3215628220608235E-07
  3.8289839399961743E+00  1.5599578905079433E-07  1.2974609656991591E-07
  3.8671309620650258E+00  1.5288947585472942E-07  1.2737971999096857E-07
  3.9056580315082012E+00  1.4984747793821346E-07  1.2505634732645613E-07
  3.9445689346240531E+00  1.4686837684777336E-07  1.2277518852964582E-07
  3.9838674954326860E+00  1.4395078801629063E-07  1.2053546836123440E-07
  4.0235575760517772E+00  1.4109335987976292E-07  1.1833642610631222E-07
  4.0636430770761320E+00  1.3829477301872129E-07  1.1617731529631379E-07
  4.1041279379610076E+00  1.3555373933711565E-07  1.1405740344896022E-07
  4.1450161374092787E+00  1.3286900197848944E-07  1.1197597249688939E-07
  4.1863116937624518E+00  1.3023933715540938E-07  1.0993232078771378E-07
  4.2280186653955640E+00  1.2766356898543624E-07  1.0792577537967431E-07
  4.2701411511160243E+00  1.2514056336108324E-07  1.0595568723382691E-07
  4.3126832905664454E+00  1.2266921143664564E-07  1.0402141836843169E-07
  4.3556492646314551E+00  1.2024842824901392E-07  1.0212234106543852E-07
  4.3990432958485854E+00  1.1787715218704315E-07  1.0025783773293056E-07
  4.4428696488232440E+00  1.1555434447327628E-07  9.8427300768609834E-08
  4.4871326306478352E+00  1.1327898865771416E-07  9.6630132424341525E-08
  4.5318365913250300E+00  1.1105009012333172E-07  9.4865744671773924E-08
  4.5769859241952746E+00  1.0886667560307075E-07  9.3133559069073122E-08
  4.6225850663685604E+00  1.0672779271119969E-07  9.1433006631761473E-08
  4.6686384991604699E+00  1.0463250911806860E-07  8.9763527349815026E-08
  4.7151507485325954E+00  1.0257991198340942E-07  8.8124569927623396E-08
  4.7621263855373348E+00  1.0056910745756469E-07  8.6515591785293275E-08
  4.8095700267671146E+00  9.8599217250400689E-08  8.4936056413486457E-08
  4.8574863348080850E+00  9.6669381490421551E-08  8.3385435879040990E-08
  4.9058800186983493E+00  9.4778758998944071E-08  8.1863211254872738E-08
  4.9547558343907552E+00  9.2926526866705112E-08  8.0368872481145004E-08
  5.0041185852202812E+00  9.1111880040592562E-08  7.8901918228140338E-08
  5.0539731223760942E+00  8.9334030920241145E-08  7.7461855760827637E-08
  5.1043243453783171E+00  8.7592208964238545E-08  7.6048200805115872E-08
  5.1551772025595177E+00  8.5885660305699527E-08  7.4660477415785198E-08
  5.2065366915510225E+00  8.4213647370841591E-08  7.3298217840242541E-08
  5.2584078597740689E+00  8.2575448579776563E-08  7.1960962455282009E-08
  5.3107958049358466E+00  8.0970358018236928E-08  7.0648259682757218E-08
  5.3637056755304622E+00  7.9397681364804439E-08  6.9359662517529863E-08
  5.4171426713449424E+00  7.7856733592398992E-08  6.8094726797330894E-08
  5.4711120439702379E+00  7.6346843695809272E-08  6.6853015467430352E-08
  5.5256190973173238E+00  7.4867355667250319E-08  6.5634099555613597E-08
  5.5806691881384527E+00  7.3417628144653577E-08  6.4437558028129854E-08
  5.6362677265536085E+00  7.1997034063513373E-08  6.3262977643759874E-08
  5.6924201765821731E+00  7.0604960317600102E-08  6.2109952810511536E-08
  5.7491320566799198E+00  6.9240807428295492E-08  6.0978085444896732E-08
  5.8064089402813517E+00  6.7903989222316791E-08  5.9866984833746161E-08
  5.8642564563474382E+00  6.6593932520116623E-08  5.8776267500909965E-08
  5.9226802899187847E+00  6.5310076894072053E-08  5.7705557135547687E-08
  5.9816861826743732E+00  6.4051874560640165E-08  5.6654484642851772E-08
  6.0412799334958169E+00  6.2818790695442446E-08  5.5622688592377482E-08
  6.1014673990372428E+00  6.1610301007973625E-08  5.4609813207177576E-08
  6.1622544943008712E+00  6.0425891431231345E-08  5.3615508163898378E-08
  6.2236471932183361E+00  5.9265059231169827E-08  5.2639429645164608E-08
  6.2856515292377502E+00  5.8127312789425497E-08  5.1681240260453567E-08
  6.3482735959166687E+00  5.7012171340956211E-08  5.0740608925526562E-08
  6.4115195475209434E+00  5.5919164718335488E-08  4.9817210744107310E-08
  6.4753955996295423E+00  5.4847833102519196E-08  4.8910726891766027E-08
  6.5399080297453658E+00  5.3797726779908261E-08  4.8020844501969314E-08
  6.6050631779122213E+00  5.2768405905363037E-08  4.7147256554096979E-08
  6.6708674473378720E+00  5.1759440229729948E-08  4.6289661724097319E-08
  6.7373273050233156E+00  5.0770408640643141E-08  4.5447764051175761E-08
  6.8044492823983527E+00  4.9800898529644028E-08  4.4621272443576517E-08
  6.8722399759634740E+00  4.8850505600627962E-08  4.3809900598853995E-08
  6.9407060479381189E+00  4.7918834530591960E-08  4.3013367709126617E-08
  7.0098542269154320E+00  4.7005498697136600E-08  4.2231398309315399E-08
  7.0796913085235218E+00  4.6110119950040196E-08  4.1463722152730004E-08
  7.1502241560933149E+00  4.5232328412833558E-08  4.0710074110198327E-08
  7.2214597013330284E+00  4.4371762289361548E-08  3.9970194071177928E-08
  7.2934049450094367E+00  4.3528067675194489E-08  3.9243826846809001E-08
  7.3660669576358568E+00  4.2700898373760442E-08  3.8530722074871644E-08
  7.4394528801670115E+00  4.1889915717072923E-08  3.7830634126610182E-08
  7.5135699247008159E+00  4.1094788397382679E-08  3.7143322021423912E-08
  7.5884253751871720E+00  4.0315192392635250E-08  3.6468549429368286E-08
  7.6640265881437895E+00  3.9550810743453027E-08  3.5806084537155562E-08
  7.7403809933791585E+00  3.8801327800450436E-08  3.5155694882594887E-08
  7.8174960947227428E+00  3.8066422991054932E-08  3.4517141907143553E-08
  7.8953794707624141E+00  3.7345780933854107E-08  3.3890190034887337E-08
  7.9740387755892295E+00  3.6639094091134602E-08  3.3274609061381853E-08
  8.0534817395496869E+00  3.5946062557226232E-08  3.2670174023124135E-08
  8.1337161700054121E+00  3.5266393846647398E-08  3.2076665064836156E-08
  8.2147499521004352E+00  3.4599802688682747E-08  3.1493867310382887E-08
  8.2965910495361133E+00  3.3946010828179689E-08  3.0921570737215575E-08
  8.3792475053537974E+00  3.3304746832357140E-08  3.0359570054235523E-08
  8.4627274427252352E+00  3.2675745904101636E-08  2.9807664583638156E-08
  8.5470390657509103E+00  3.2058749735840403E-08  2.9265658179296853E-08
  8.6321906602663123E+00  3.1453506284597002E-08  2.8733359067016421E-08
  8.7181905946562388E+00  3.0859770613255287E-08  2.8210580657113998E-08
  8.8050473206771738E+00  3.0277309672328236E-08  2.7697145905291876E-08
  8.8927693742879548E+00  2.9705898724021451E-08  2.7192884116115598E-08
  8.9813653764886148E+00  2.9145317978332208E-08  2.6697627975764563E-08
  9.0708440341676262E+00  2.8595352399211765E-08  2.6211213413830868E-08
  9.1612141409575898E+00  2.8055791591793610E-08  2.5733479535605227E-08
  9.2524845780994482E+00  2.7526429692532763E-08  2.5264268555872793E-08
  9.3446643153152813E+00  2.7007065262175003E-08  2.4803425734183856E-08
  9.4377624116898264E+00  2.6497501181477113E-08  2.4350799311563748E-08
  9.5317880165607871E+00  2.5997544549544616E-08  2.3906240448574954E-08
  9.6267503704179695E+00  2.5507006541605615E-08  2.3469603123885878E-08
  9.7226588058114150E+00  2.5025702216936675E-08  2.3040743984307301E-08
  9.8195227482685823E+00  2.4553452691193602E-08  2.2619524411759343E-08
  9.9173517172206420E+00  2.4090096485078057E-08  2.2205820983041450E-08
  1.0016155326937998E+01  2.3635485989769631E-08  2.1799522124849367E-08
  1.0115943287475156E+01  2.3189476097676951E-08  2.1400517819861684E-08
  1.0216725405625011E+01  2.2751923306589894E-08  2.1008698820527506E-08
  1.0318511585882584E+01  2.2322685731802317E-08  2.0623956677045590E-08
  1.0421311831418416E+01  2.1901623116883289E-08  2.0246183763870386E-08
  1.0525136245061663E+01  2.1488596843136753E-08  1.9875273304777495E-08
  1.0629995030292944E+01  2.1083469937790885E-08  1.9511119396521550E-08
  1.0735898492247079E+01  2.0686107080957012E-08  1.9153617031120094E-08
  1.0842857038725890E+01  2.0296374622499580E-08  1.8802662127209338E-08
  1.0950881181221025E+01  1.9914140615989078E-08  1.8458151576275310E-08
  1.1059981535946941E+01  1.9539274587255491E-08  1.8119983036747337E-08
  1.1170168824884300E+01  1.9171649454401828E-08  1.7788056706380481E-08
  1.1281453876833652E+01  1.8811145397543703E-08  1.7462278889420759E-08
  1.1393847628479616E+01  1.8457644972261446E-08  1.7142557549430199E-08
  1.1507361125465758E+01  1.8111031777252046E-08  1.6828801111746063E-08
  1.1622005523480100E+01  1.7771190482822668E-08  1.6520918500903567E-08
  1.1737792089351387E+01  1.7438006859007345E-08  1.6218819177617462E-08
  1.1854732202156503E+01  1.7111367801770479E-08  1.5922413173931037E-08
  1.1972837354338600E+01  1.6791161357351457E-08  1.5631611126572787E-08
  1.2092119152836593E+01  1.6477276744801151E-08  1.5346324308558318E-08
  1.2212589320225950E+01  1.6169604375831634E-08  1.5066464658230914E-08
  1.2334259695870553E+01  1.5868035948758565E-08  1.4791944879620960E-08
  1.2457142237086384E+01  1.5572464546738242E-08  1.4522678544897488E-08
  1.2581249020316580E+01  1.5282784642324853E-08  1.4258580111539215E-08
  1.2706592242318242E+01  1.4998890921648704E-08  1.3999563851152010E-08
  1.2833184221361149E+01  1.4720678657401540E-08  1.3745544192547501E-08
  1.2961037398438316E+01  1.4448044500255029E-08  1.3496436456572787E-08
  1.3090164338488616E+01  1.4180886499591866E-08  1.3252156885515922E-08
  1.3220577731631687E+01  1.3919104106380673E-08  1.3012622656044404E-08
  1.3352290394415038E+01  1.3662598174980107E-08  1.2777751890965532E-08
  1.3485315271073565E+01  1.3411270963914900E-08  1.2547463669847235E-08
  1.3619665434801750E+01  1.3165026135666169E-08  1.2321678038537168E-08
  1.3755354089038399E+01  1.2923768755586241E-08  1.2100316017675707E-08
  1.3892394568764189E+01  1.2687405228731013E-08  1.1883299551815946E-08
  1.4030800341812268E+01  1.2455842913675958E-08  1.1670551151251186E-08
  1.4170585010191775E+01  1.2228989221212702E-08  1.1461993052832687E-08
  1.4311762311424543E+01  1.2006744823725079E-08  1.1257540884150741E-08
  1.4454346119895330E+01  1.1789006143498119E-08  1.1057106036928835E-08
  1.4598350448215152E+01  1.1575671747759096E-08  1.0860601607848595E-08
  1.4743789448598477E+01  1.1366642704311183E-08  1.0667942736312623E-08
  1.4890677414254140E+01  1.1161822514763575E-08  1.0479046552854582E-08
  1.5039028780789851E+01  1.0961117049690098E-08  1.0293832128950372E-08
  1.5188858127631004E+01  1.0764434485655410E-08  1.0112220428188797E-08
  1.5340180179453462E+01  1.0571685244051877E-08  9.9341342587628061E-09
