 #p(MeV) \t \delta f_\\nu \t \delta f_\\nubar
  4.5074013523553025E-01  2.6826185952318621E-01  1.4265572011975670E-05
  4.5523072442462076E-01  2.6776526315878862E-01  1.4131395378394176E-05
  4.5976605201104642E-01  2.6733894943583159E-01  1.3998206637843967E-05
  4.6434656371008293E-01  2.6702571768298483E-01  1.3866003332825856E-05
  4.6897270967753296E-01  2.6668400776020035E-01  1.3734782977935916E-05
  4.7364494455396783E-01  2.6614709804281589E-01  1.3604543088091341E-05
  4.7836372750940626E-01  2.6560981158252878E-01  1.3475281147100843E-05
  4.8312952228844053E-01  2.6506070706079221E-01  1.3346994697525431E-05
  4.8794279725581224E-01  2.6460915867188417E-01  1.3219681485450757E-05
  4.9280402544244017E-01  2.6416721669511178E-01  1.3093339172158271E-05
  4.9771368459190940E-01  2.6372744415804850E-01  1.2967964686181197E-05
  5.0267225720742092E-01  2.6324472447767022E-01  1.2843553651514095E-05
  5.0768023059921064E-01  2.6279161906710585E-01  1.2720100138014426E-05
  5.1273809693244177E-01  2.6230005471409834E-01  1.2597596885907672E-05
  5.1784635327557027E-01  2.6183166052472029E-01  1.2476036245986551E-05
  5.2300550164919823E-01  2.6142302344861434E-01  1.2355410605882038E-05
  5.2821604907540765E-01  2.6097473955734396E-01  1.2235712400557496E-05
  5.3347850762758997E-01  2.6056942708899672E-01  1.2116934095780707E-05
  5.3879339448077157E-01  2.6012319218958696E-01  1.1999068251370306E-05
  5.4416123196243782E-01  2.5968614801607881E-01  1.1882107551999176E-05
  5.4958254760386793E-01  2.5924878946166746E-01  1.1766044514438070E-05
  5.5505787419197650E-01  2.5876649749119163E-01  1.1650871323291627E-05
  5.6058774982167492E-01  2.5824895955103105E-01  1.1536580148208612E-05
  5.6617271794875412E-01  2.5773056761722979E-01  1.1423163695907719E-05
  5.7181332744329139E-01  2.5725073954101513E-01  1.1310615646585684E-05
  5.7751013264359363E-01  2.5683789563603282E-01  1.1198930784816120E-05
  5.8326369341067386E-01  2.5642168204284527E-01  1.1088104481064435E-05
  5.8907457518327266E-01  2.5601738760710968E-01  1.0978132177314035E-05
  5.9494334903342871E-01  2.5551372403049127E-01  1.0869009343519077E-05
  6.0087059172259960E-01  2.5498394742651731E-01  1.0760731486315437E-05
  6.0685688575834595E-01  2.5450965964783362E-01  1.0653294116730969E-05
  6.1290281945157599E-01  2.5400589975395410E-01  1.0546692650875123E-05
  6.1900898697436380E-01  2.5355683778759619E-01  1.0440922576668217E-05
  6.2517598841834321E-01  2.5312591640039506E-01  1.0335979805448629E-05
  6.3140442985367995E-01  2.5268800577106776E-01  1.0231860777435333E-05
  6.3769492338863709E-01  2.5222383140669657E-01  1.0128562249331357E-05
  6.4404808722972817E-01  2.5184473552279973E-01  1.0026080966360901E-05
  6.5046454574247381E-01  2.5141669966736807E-01  9.9244134083004025E-06
  6.5694492951276195E-01  2.5098291638925668E-01  9.8235557865348443E-06
  6.6348987540881876E-01  2.5051627962224171E-01  9.7235042499459433E-06
  6.7010002664379764E-01  2.5002304446466084E-01  9.6242549311395881E-06
  6.7677603283899379E-01  2.4957576774127324E-01  9.5258039442361912E-06
  6.8351855008768325E-01  2.4912920013178733E-01  9.4281473832064118E-06
  6.9032824101960499E-01  2.4861988200973900E-01  9.3312813421894586E-06
  6.9720577486607838E-01  2.4818916072885530E-01  9.2352019112688787E-06
  7.0415182752577576E-01  2.4774185110994018E-01  9.1399051977354800E-06
  7.1116708163114462E-01  2.4727462328236502E-01  9.0453875127901761E-06
  7.1825222661549559E-01  2.4684801674997547E-01  8.9516456721814256E-06
  7.2540795878075826E-01  2.4640290704313511E-01  8.8586772405364429E-06
  7.3263498136590910E-01  2.4593954884185074E-01  8.7664806174823363E-06
  7.3993400461608416E-01  2.4545865558069743E-01  8.6750548616472185E-06
  7.4730574585238019E-01  2.4501561603284103E-01  8.5843991436916391E-06
  7.5475092954234868E-01  2.4459746730592563E-01  8.4945125333401796E-06
  7.6227028737119584E-01  2.4419773282882570E-01  8.4053939965658263E-06
  7.6986455831368727E-01  2.4374315083955847E-01  8.3170423981394835E-06
  7.7753448870677477E-01  2.4332208328817859E-01  8.2294565147706155E-06
  7.8528083232294110E-01  2.4284231499211206E-01  8.1426350144774868E-06
  7.9310435044427852E-01  2.4233885485768344E-01  8.0565762275270912E-06
  8.0100581193730636E-01  2.4185687029955893E-01  7.9712776725448443E-06
  8.0898599332853038E-01  2.4138530456986093E-01  7.8867355426659159E-06
  8.1704567888075719E-01  2.4105379325707396E-01  7.8029443954240108E-06
  8.2518566067017085E-01  2.4061790234620567E-01  7.7198971388055766E-06
  8.3340673866417170E-01  2.4016359552384142E-01  7.6375853170888050E-06
  8.4170972079999806E-01  2.3963582966994346E-01  7.5559999897385695E-06
  8.5009542306412322E-01  2.3919752140940989E-01  7.4751323381666131E-06
  8.5856466957245170E-01  2.3866261615336742E-01  7.3949737043646077E-06
  8.6711829265130747E-01  2.3825673321610003E-01  7.3155155907091119E-06
  8.7575713291923185E-01  2.3781242865878185E-01  7.2367496655420593E-06
  8.8448203936959946E-01  2.3733849574780463E-01  7.1586678111633867E-06
  8.9329386945405020E-01  2.3692241044173548E-01  7.0812623686909173E-06
  9.0219348916675857E-01  2.3651353536562789E-01  7.0045265685244390E-06
  9.1118177312954152E-01  2.3614182033854458E-01  6.9284549154831263E-06
  9.2025960467780943E-01  2.3568546385069972E-01  6.8530433433525991E-06
  9.2942787594738141E-01  2.3524232608360696E-01  6.7782891149109603E-06
  9.3868748796215695E-01  2.3477508914811987E-01  6.7041905503984866E-06
  9.4803935072266909E-01  2.3432687362992533E-01  6.6307464886459354E-06
  9.5748438329551311E-01  2.3389137380977293E-01  6.5579557330974291E-06
  9.6702351390366892E-01  2.3342337016414777E-01  6.4858169702006894E-06
  9.7665768001772724E-01  2.3301791112323800E-01  6.4143287709460076E-06
  9.8638782844801531E-01  2.3257518638879382E-01  6.3434895835232287E-06
  9.9621491543764928E-01  2.3213552559388526E-01  6.2732976881829267E-06
  1.0061399067565107E+00  2.3165999656781053E-01  6.2037509973606868E-06
  1.0161637777961556E+00  2.3121130566074249E-01  6.1348467220874511E-06
  1.0262875136656771E+00  2.3075111545373039E-01  6.0665811609473580E-06
  1.0365121092885123E+00  2.3031596241225591E-01  5.9989497648440005E-06
  1.0468385695002265E+00  2.2989137483497959E-01  5.9319474177257635E-06
  1.0572679091472592E+00  2.2948591228935808E-01  5.8655687768421215E-06
  1.0678011531866607E+00  2.2910149136787911E-01  5.7998085256556241E-06
  1.0784393367868250E+00  2.2866774837523901E-01  5.7346614351006710E-06
  1.0891835054292165E+00  2.2822434991175966E-01  5.6701223550231571E-06
  1.1000347150111192E+00  2.2775889184904732E-01  5.6061862124932020E-06
  1.1109940319494078E+00  2.2725672700413038E-01  5.5428480160396524E-06
  1.1220625332853469E+00  2.2679041585184764E-01  5.4801028809198538E-06
  1.1332413067904437E+00  2.2630142453801191E-01  5.4179461457078555E-06
  1.1445314510733453E+00  2.2588308061701176E-01  5.3563735824472963E-06
  1.1559340756878107E+00  2.2547034833028290E-01  5.2953814806222803E-06
  1.1674503012417490E+00  2.2503018070965478E-01  5.2349664501967089E-06
  1.1790812595073512E+00  2.2468268123597421E-01  5.1751250231272096E-06
  1.1908280935323183E+00  2.2424791341721795E-01  5.1158532462965255E-06
  1.2026919577521913E+00  2.2382447180141449E-01  5.0571464765908028E-06
  1.2146740181038076E+00  2.2339718118118568E-01  4.9989997488324295E-06
  1.2267754521398866E+00  2.2295748788618086E-01  4.9414081066172975E-06
  1.2389974491447509E+00  2.2249540824142136E-01  4.8843666230009969E-06
  1.2513412102512094E+00  2.2203611965954437E-01  4.8278703987102197E-06
  1.2638079485585956E+00  2.2163553195982749E-01  4.7719145513236623E-06
  1.2763988892519917E+00  2.2120196206117576E-01  4.7164941605560039E-06
  1.2891152697226305E+00  2.2074757600213510E-01  4.6616041565627075E-06
  1.3019583396895034E+00  2.2028501463679812E-01  4.6072393061579189E-06
  1.3149293613221806E+00  2.1984385383038380E-01  4.5533944513122204E-06
  1.3280296093648485E+00  2.1944214569920695E-01  4.5000649482808658E-06
  1.3412603712615883E+00  2.1901461110937215E-01  4.4472471174878055E-06
  1.3546229472829037E+00  2.1863593963228883E-01  4.3949385073676344E-06
  1.3681186506535030E+00  2.1823665506133735E-01  4.3431374704875959E-06
  1.3817488076813593E+00  2.1781466966584143E-01  4.2918424180875744E-06
  1.3955147578880567E+00  2.1732313859855701E-01  4.2410517103047839E-06
  1.4094178541404323E+00  2.1680077718416768E-01  4.1907636572827484E-06
  1.4234594627835297E+00  2.1630987716729336E-01  4.1409765236576452E-06
  1.4376409637748799E+00  2.1586496868934935E-01  4.0916885546100610E-06
  1.4519637508201200E+00  2.1547540047030506E-01  4.0428980578209070E-06
  1.4664292315099572E+00  2.1512074785885529E-01  3.9946034749442549E-06
  1.4810388274585045E+00  2.1475218398214965E-01  3.9468033017962585E-06
  1.4957939744429927E+00  2.1434589719312871E-01  3.8994958239968522E-06
  1.5106961225448710E+00  2.1393065977828218E-01  3.8526787685649291E-06
  1.5257467362923149E+00  2.1344884416614171E-01  3.8063490151359923E-06
  1.5409472948041587E+00  2.1298805102263194E-01  3.7605026606259067E-06
  1.5562992919352552E+00  2.1257994171548239E-01  3.7151356123345338E-06
  1.5718042364232843E+00  2.1215970476534673E-01  3.6702437863311647E-06
  1.5874636520370291E+00  2.1172830699943249E-01  3.6258231105152225E-06
  1.6032790777261274E+00  2.1130674700901744E-01  3.5818695240851331E-06
  1.6192520677723099E+00  2.1086072838042086E-01  3.5383789683711404E-06
  1.6353841919421506E+00  2.1043879723750200E-01  3.4953473267686237E-06
  1.6516770356413422E+00  2.1004897744561607E-01  3.4527702969051725E-06
  1.6681322000704972E+00  2.0962360943705510E-01  3.4106432846844152E-06
  1.6847513023825103E+00  2.0920205780463991E-01  3.3689614137300826E-06
  1.7015359758414899E+00  2.0875085938405283E-01  3.3277196611052642E-06
  1.7184878699832660E+00  2.0829483994575601E-01  3.2869130588412100E-06
  1.7356086507774979E+00  2.0789739746545813E-01  3.2465368554998461E-06
  1.7529000007914042E+00  2.0746519058393301E-01  3.2065864617640985E-06
  1.7703636193551193E+00  2.0703659123924420E-01  3.1670573672996377E-06
  1.7880012227286932E+00  2.0661715298854524E-01  3.1279451346259321E-06
  1.8058145442707609E+00  2.0618665474151870E-01  3.0892453981685745E-06
  1.8238053346088952E+00  2.0580002776794984E-01  3.0509538649330763E-06
  1.8419753618116443E+00  2.0541894834431040E-01  3.0130663374192141E-06
  1.8603264115622946E+00  2.0499654579716109E-01  2.9755787972642730E-06
  1.8788602873343634E+00  2.0455014342788580E-01  2.9384875141596404E-06
  1.8975788105688352E+00  2.0409616078147211E-01  2.9017890980517122E-06
  1.9164838208531643E+00  2.0363939182669605E-01  2.8654804527578435E-06
  1.9355771761020655E+00  2.0321326980906029E-01  2.8295586483805879E-06
  1.9548607527401041E+00  2.0277222820326316E-01  2.7940207700451947E-06
  1.9743364458861006E+00  2.0235819631545798E-01  2.7588638579888153E-06
  1.9940061695393765E+00  2.0196566394316628E-01  2.7240849448722910E-06
  2.0138718567678597E+00  2.0155841281395429E-01  2.6896810636823713E-06
  2.0339354598980535E+00  2.0118066284582287E-01  2.6556492480420501E-06
  2.0541989507069047E+00  2.0077479423124187E-01  2.6219865327244854E-06
  2.0746643206155877E+00  2.0039228285315455E-01  2.5886899533895942E-06
  2.0953335808852112E+00  1.9999167767494536E-01  2.5557565277155473E-06
  2.1162087628144719E+00  1.9955419040346478E-01  2.5231832293815933E-06
  2.1372919179392915E+00  1.9912110692824322E-01  2.4909670030022135E-06
  2.1585851182344316E+00  1.9865609415685917E-01  2.4591048445718138E-06
  2.1800904563171168E+00  1.9822084659157213E-01  2.4275939289073809E-06
  2.2018100456526901E+00  1.9777868966037654E-01  2.3964317371689796E-06
  2.2237460207623228E+00  1.9737843175081221E-01  2.3656160390958250E-06
  2.2459005374327772E+00  1.9698422659200482E-01  2.3351446548745038E-06
  2.2682757729282752E+00  1.9655249703155561E-01  2.3050153844832466E-06
  2.2908739262044739E+00  1.9615003402428521E-01  2.2752260079081530E-06
  2.3136972181245690E+00  1.9569561550728759E-01  2.2457742859259205E-06
  2.3367478916775455E+00  1.9528218727354327E-01  2.2166579574482309E-06
  2.3600282121986225E+00  1.9483866867569577E-01  2.1878747378181614E-06
  2.3835404675918768E+00  1.9442095607046145E-01  2.1594223289378045E-06
  2.4072869685550864E+00  1.9405536971063936E-01  2.1312984395196630E-06
  2.4312700488068208E+00  1.9370675512510119E-01  2.1035008061825373E-06
  2.4554920653157937E+00  1.9331129887311363E-01  2.0760272070073317E-06
  2.4799553985324878E+00  1.9293073657896112E-01  2.0488754635206779E-06
  2.5046624526231049E+00  1.9250079695642594E-01  2.0220434274770807E-06
  2.5296156557058356E+00  1.9207090785172418E-01  1.9955289443979629E-06
  2.5548174600894886E+00  1.9162625720460341E-01  1.9693298367666527E-06
  2.5802703425144853E+00  1.9119441973002785E-01  1.9434439044770192E-06
  2.6059768043962772E+00  1.9076742216979717E-01  1.9178689260334197E-06
  2.6319393720711695E+00  1.9034862570427022E-01  1.8926026601357881E-06
  2.6581605970445983E+00  1.8993828642075367E-01  1.8676428455783600E-06
  2.6846430562418848E+00  1.8952176380049462E-01  1.8429872345419758E-06
  2.7113893522614907E+00  1.8911517914242057E-01  1.8186337764988437E-06
  2.7384021136307846E+00  1.8873166749076620E-01  1.7945810418352811E-06
  2.7656839950643666E+00  1.8833418068536906E-01  1.7708288415255026E-06
  2.7932376777249672E+00  1.8791864466527144E-01  1.7473788819961782E-06
  2.8210658694869419E+00  1.8752862275979518E-01  1.7242351567333925E-06
  2.8491713052023790E+00  1.8711958576017890E-01  1.7014028480533193E-06
  2.8775567469698902E+00  1.8670703861684915E-01  1.6788869058363620E-06
  2.9062249844060468E+00  1.8627898337845827E-01  1.6566919078105865E-06
  2.9351788349195340E+00  1.8587431749366318E-01  1.6348220718580032E-06
  2.9644211439880372E+00  1.8545193705453050E-01  1.6132812684473421E-06
  2.9939547854378898E+00  1.8503832604592432E-01  1.5920730334897797E-06
  3.0237826617264916E+00  1.8457456436329273E-01  1.5712005713350904E-06
  3.0539077042275600E+00  1.8418913672406229E-01  1.5506666889571539E-06
  3.0843328735192133E+00  1.8379275052515506E-01  1.5304735889560991E-06
  3.1150611596749274E+00  1.8337318203562322E-01  1.5106225146006949E-06
  3.1460955825573755E+00  1.8294489085880467E-01  1.4911133209109217E-06
  3.1774391921152301E+00  1.8246046280171016E-01  1.4719441064608066E-06
  3.2090950686828874E+00  4.4211001814349156E-03  1.4531115382129465E-06
  3.2410663232831927E+00  2.8278960296497415E-04  1.4346120075910427E-06
  3.2733560979331804E+00  1.4462759121792706E-04  1.4164419173370238E-06
  3.3059675659528658E+00  9.6477097064809090E-05  1.3985976854262768E-06
  3.3389039322770988E+00  7.1987968117759679E-05  1.3810757473349484E-06
  3.3721684337705367E+00  5.7162107473097864E-05  1.3638725530749930E-06
  3.4057643395457542E+00  4.7225493377333647E-05  1.3469845730071428E-06
  3.4396949512845185E+00  4.0104666604079649E-05  1.3304084738872197E-06
  3.4739636035622561E+00  3.4753618679882333E-05  1.3141417518029387E-06
  3.5085736641757803E+00  3.0587470577787549E-05  1.2981839655949277E-06
  3.5435285344742562E+00  2.7253570373476878E-05  1.2825384330921644E-06
  3.5788316496934702E+00  2.4526687381237825E-05  1.2672140103891038E-06
  3.6144864792934341E+00  2.2256473667520325E-05  1.2522254204908005E-06
  3.6504965272993601E+00  2.0338749051842461E-05  1.2375889935932060E-06
  3.6868653326460086E+00  1.8698900906162133E-05  1.2233204024356643E-06
  3.7235964695254893E+00  1.7282073094884998E-05  1.2094346485665896E-06
  3.7606935477385233E+00  1.6047025809311350E-05  1.1959461228460113E-06
  3.7981602130491980E+00  1.4962152577905507E-05  1.1828686697221706E-06
  3.8360001475432481E+00  1.4002819066690141E-05  1.1702156560723200E-06
  3.8742170699899372E+00  1.3149538563602505E-05  1.1579999724098836E-06
  3.9128147362075150E+00  1.2386692051804824E-05  1.1462337562354038E-06
  3.9517969394323198E+00  1.1701611106757839E-05  1.1349276471866316E-06
  3.9911675106915712E+00  1.1083906296800289E-05  1.1240895614578811E-06
  4.0309303191798715E+00  1.0524958052065792E-05  1.1137231790222525E-06
  4.0710892726394468E+00  1.0017486650201650E-05  1.1038268098396973E-06
  4.1116483177441898E+00  9.5552752665276614E-06  1.0943958698586189E-06
  4.1526114404875338E+00  9.1330558024628385E-06  1.0854259626312007E-06
  4.1939826665741631E+00  8.7463454343878359E-06  1.0769131630442588E-06
  4.2357660618156556E+00  8.3913066776488366E-06  1.0688540214069911E-06
  4.2779657325300597E+00  8.0646363479736700E-06  1.0612455706761597E-06
  4.3205858259454386E+00  7.7634767031546608E-06  1.0540853441808256E-06
  4.3636305306074501E+00  7.4853437317091585E-06  1.0473713698728680E-06
  4.4071040767909757E+00  7.2280686578275990E-06  1.0411020146174173E-06
  4.4510107369158671E+00  6.9897494217402015E-06  1.0352755189412520E-06
  4.4953548259668148E+00  6.7687090812003278E-06  1.0298891321032913E-06
  4.5401407019174060E+00  6.5634567922678131E-06  1.0249378826766812E-06
  4.5853727661584252E+00  6.3726390738454841E-06  1.0204132174086620E-06
  4.6310554639303971E+00  6.1949994755000864E-06  1.0163035518449295E-06
  4.6771932847604338E+00  6.0294056730849735E-06  1.0125971956582392E-06
  4.7237907629034783E+00  5.8748465888734782E-06  1.0092829729536844E-06
  4.7708524777879022E+00  5.7304168271481448E-06  1.0063501821917788E-06
  4.8183830544655359E+00  5.5953033669105962E-06  1.0037885558864157E-06
  4.8663871640662313E+00  5.4687741840390444E-06  1.0015882242175070E-06
  4.9148695242569138E+00  5.3501684771956645E-06  9.9973967459440417E-07
  4.9638348997051969E+00  5.2388880641981022E-06  9.9823357276585950E-07
  5.0132881025476665E+00  5.1343892033352957E-06  9.9706014314000893E-07
  5.0632339928627905E+00  5.0361734857043329E-06  9.9620778759827469E-07
  5.1136774791485209E+00  4.9437745760754436E-06  9.9566074557149679E-07
  5.1646235188047456E+00  4.8567297864268867E-06  9.9539585159165920E-07
  5.2160771186204125E+00  4.7745348605134091E-06  9.9538088260418556E-07
  5.2680433352656104E+00  4.6966868224749510E-06  9.9558018595652197E-07
  5.3205272757885549E+00  4.6227194181687965E-06  9.9595761895832828E-07
  5.3735340981174149E+00  4.5522000929198965E-06  9.9647654399788617E-07
  5.4270690115672791E+00  4.4847263506545978E-06  9.9709976380111787E-07
  5.4811372773520839E+00  4.4199226238998449E-06  9.9778947214614360E-07
  5.5357442091016500E+00  4.3574375908166026E-06  9.9850722049057733E-07
  5.5908951733839221E+00  4.2969419277050419E-06  9.9921393577737840E-07
  5.6465955902323541E+00  4.2381266472584271E-06  9.9987012384354496E-07
  5.7028509336785564E+00  4.1807024540808038E-06  1.0004364612452597E-06
  5.7596667322902961E+00  4.1244012294408823E-06  1.0008749811818792E-06
  5.8170485697148093E+00  4.0689830439120621E-06  1.0011509817002400E-06
  5.8750020852275222E+00  4.0142548809236137E-06  1.0012350817250415E-06
  5.9335329742862930E+00  3.9600625298737038E-06  1.0011010747482885E-06
  5.9926469890911216E+00  3.9062636295811301E-06  1.0007228977813864E-06
  6.0523499391494413E+00  3.8527247667115321E-06  1.0000744558611546E-06
  6.1126476918470880E+00  3.7993211761984301E-06  9.9912970264966247E-07
  6.1735461730249082E+00  3.7459365026181109E-06  9.9786272843697383E-07
  6.2350513675611037E+00  3.6924626088715589E-06  9.9624784971282579E-07
  6.2971693199594725E+00  3.6387994618486803E-06  9.9425973229168045E-07
  6.3599061349433610E+00  3.5848552778213590E-06  9.9187369153954066E-07
  6.4232679780556436E+00  3.5305474138139104E-06  9.8906644047118220E-07
  6.4872610762646978E+00  3.4758051845838695E-06  9.8581764580228409E-07
  6.5518917185762771E+00  3.4205777975541503E-06  9.8211265210606571E-07
  6.6171662566516467E+00  3.3648559658379998E-06  9.7794633220224492E-07
  6.6830911054317728E+00  3.3086801419772846E-06  9.7332241495394423E-07
