 #p(MeV) \t \delta f_\\nu \t \delta f_\\nubar
  2.7535963384204037E-02  2.6826319457983322E-01  1.6394208211659000E-05
  2.7810295953722582E-02  2.6776660349739378E-01  1.6257580393878046E-05
  2.8087361616601549E-02  2.6734029469365145E-01  1.6121920718116417E-05
  2.8367187601832884E-02  2.6702706724926201E-01  1.5987226975683384E-05
  2.8649801409682773E-02  2.6668536183975838E-01  1.5853497437511557E-05
  2.8935230814394391E-02  2.6614845780812174E-01  1.5720730736431101E-05
  2.9223503866917355E-02  2.6561117708432436E-01  1.5588925724703918E-05
  2.9514648897664492E-02  2.6506207841823931E-01  1.5458081482904544E-05
  2.9808694519296117E-02  2.6461053536969625E-01  1.5328197406164114E-05
  3.0105669629531866E-02  2.6416859872984116E-01  1.5199272875008782E-05
  3.0405603413990762E-02  2.6372883157153265E-01  1.5071306582037225E-05
  3.0708525349059386E-02  2.6324611757819089E-01  1.4944295940304205E-05
  3.1014465204788750E-02  2.6279301774068597E-01  1.4818236816210767E-05
  3.1323453047820013E-02  2.6230145924835502E-01  1.4693123572636995E-05
  3.1635519244339251E-02  2.6183307084679425E-01  1.4568949289280858E-05
  3.1950694463061813E-02  2.6142443926923375E-01  1.4445706039794905E-05
  3.2269009678246252E-02  2.6097616117383204E-01  1.4323385153022368E-05
  3.2590496172738390E-02  2.6057085430973570E-01  1.4201977416722489E-05
  3.2915185541045743E-02  2.6012462531993930E-01  1.4081473312968484E-05
  3.3243109692442388E-02  2.5968758706375361E-01  1.3961863176827076E-05
  3.3574300854105031E-02  2.5925023449014767E-01  1.3843136995267192E-05
  3.3908791574280048E-02  2.5876794883065379E-01  1.3725284308793034E-05
  3.4246614725482259E-02  2.5825041747466865E-01  1.3608294571153822E-05
  3.4587803507725577E-02  2.5773203219195417E-01  1.3492157730388311E-05
  3.4932391451785651E-02  2.5725221059513398E-01  1.3376864690260163E-05
  3.5280412422495300E-02  2.5683937282344466E-01  1.3262407504871347E-05
  3.5631900622072485E-02  2.5642316544087251E-01  1.3148779347009798E-05
  3.5986890593481639E-02  2.5601887720068001E-01  1.3035974354440340E-05
  3.6345417223828475E-02  2.5551522048341851E-01  1.2923987437739913E-05
  3.6707515747788438E-02  2.5498545096090564E-01  1.2812814105448426E-05
  3.7073221751069585E-02  2.5451116998865458E-01  1.2702450276682110E-05
  3.7442571173909679E-02  2.5400741714741432E-01  1.2592892060094285E-05
  3.7815600314608323E-02  2.5355836196485293E-01  1.2484135830785057E-05
  3.8192345833094304E-02  2.5312744731785114E-01  1.2376178515811889E-05
  3.8572844754528206E-02  2.5268954354209577E-01  1.2269017654352503E-05
  3.8957134472941322E-02  2.5222537626702091E-01  1.2162651155804278E-05
  3.9345252754910423E-02  2.5184628701839012E-01  1.2057076948224980E-05
  3.9737237743269413E-02  2.5141825817922558E-01  1.1952292702694373E-05
  4.0133127960857870E-02  2.5098448203273560E-01  1.1848295699748579E-05
  4.0532962314306878E-02  2.5051785268534188E-01  1.1745082809104034E-05
  4.0936780097862627E-02  2.5002462519960927E-01  1.1642650533397136E-05
  4.1344620997248213E-02  2.4957735594503852E-01  1.1540995073953608E-05
  4.1756525093563618E-02  2.4913079588714462E-01  1.1440112399208499E-05
  4.2172532867224964E-02  2.4862148580432522E-01  1.1339998326254119E-05
  4.2592685201942523E-02  2.4819077215428828E-01  1.1240648564687371E-05
  4.3017023388738855E-02  2.4774347036352737E-01  1.1142058774128728E-05
  4.3445589130006568E-02  2.4727625058530173E-01  1.1044224777462735E-05
  4.3878424543606735E-02  2.4684965193662101E-01  1.0947142878748685E-05
  4.4315572167008148E-02  2.4640455032869713E-01  1.0850810120042863E-05
  4.4757074961467622E-02  2.4594120044269194E-01  1.0755224377960229E-05
  4.5202976316252128E-02  2.4546031571153429E-01  1.0660384307069633E-05
  4.5653320052902971E-02  2.4501728455086091E-01  1.0566289195455181E-05
  4.6108150429542312E-02  2.4459914415371112E-01  1.0472938795467585E-05
  4.6567512145222839E-02  2.4419941799327796E-01  1.0380333168511726E-05
  4.7031450344320415E-02  2.4374484479265832E-01  1.0288472559142852E-05
  4.7500010620970930E-02  2.4332378592552076E-01  1.0197357310546660E-05
  4.7973239023550961E-02  2.4284402682285181E-01  1.0106987773736721E-05
  4.8451182059203277E-02  2.4234057616639096E-01  1.0017364030052778E-05
  4.8933886698407460E-02  2.4185860107521454E-01  9.9284853836563149E-06
  4.9421400379595908E-02  2.4138704487868323E-01  9.8403498260603407E-06
  4.9913771013815882E-02  2.4105554229658388E-01  9.7529537129272142E-06
  5.0411046989438199E-02  2.4061966095978757E-01  9.6662917418036501E-06
  5.0913277176912408E-02  2.4016536398464244E-01  9.5803571642378602E-06
  5.1420510933569884E-02  2.3963760863161002E-01  9.4951421074341776E-06
  5.1932798108474176E-02  2.3919931042101178E-01  9.4106379030522815E-06
  5.2450189047320281E-02  2.3866441603671634E-01  9.3268353683488698E-06
  5.2972734597382241E-02  2.3825854324850829E-01  9.2437250256026865E-06
  5.3500486112510251E-02  2.3781424926799241E-01  9.1612972678585858E-06
  5.4033495458177656E-02  2.3734032730611546E-01  9.0795425188208803E-06
  5.4571815016577915E-02  2.3692425271580292E-01  8.9984515529503412E-06
  5.5115497691772625E-02  2.3651538847433581E-01  8.9180159762689782E-06
  5.5664596914890813E-02  2.3614368419163539E-01  8.8382286441153893E-06
  5.6219166649379759E-02  2.3568733921841961E-01  8.7590838356618610E-06
  5.6779261396308525E-02  2.3524421305151863E-01  8.6805771653144580E-06
  5.7344936199723938E-02  2.3477698806963976E-01  8.6027053283784921E-06
  5.7916246652060306E-02  2.3432878455486403E-01  8.5254657971477609E-06
  5.8493248899602654E-02  2.3389329683554985E-01  8.4488565462461379E-06
  5.9075999648004654E-02  2.3342530571884013E-01  8.3728758398614893E-06
  5.9664556167861545E-02  2.3301985895194283E-01  8.2975220810857576E-06
  6.0258976300338274E-02  2.3257714696482448E-01  8.2227937034076346E-06
  6.0859318462854035E-02  2.3213749910382198E-01  8.1486890607824900E-06
  6.1465641654823405E-02  2.3166198349106251E-01  8.0752061865495757E-06
  6.2078005463454329E-02  2.3121330602142412E-01  8.0023424345255941E-06
  6.2696470069604451E-02  2.3075312956507854E-01  7.9300942540416107E-06
  6.3321096253695128E-02  2.3031799032130568E-01  7.8584572460879114E-06
  6.3951945401685070E-02  2.2989341670153271E-01  7.7874264398888705E-06
  6.4589079511102793E-02  2.2948796821390874E-01  7.7169966335744187E-06
  6.5232561197139674E-02  2.2910356144104807E-01  7.6471626724657685E-06
  6.5882453698803606E-02  2.2866983323167026E-01  7.5779196194421961E-06
  6.6538820885133743E-02  2.2822644989485191E-01  7.5092628283191041E-06
  6.7201727261477315E-02  2.2776100740825556E-01  7.4411879515808376E-06
  6.7871237975829182E-02  2.2725885871522458E-01  7.3736909181350726E-06
  6.8547418825234074E-02  2.2679256373641887E-01  7.3067679183292112E-06
  6.9230336262253098E-02  2.2630358908453946E-01  7.2404154826524697E-06
  6.9920057401494248E-02  2.2588526158719516E-01  7.1746306621380312E-06
  7.0616650026208427E-02  2.2547254600583186E-01  7.1094110856004188E-06
  7.1320182594950668E-02  2.2503239564825736E-01  7.0447547426699262E-06
  7.2030724248308156E-02  2.2468491304015720E-01  6.9806595727579973E-06
  7.2748344815695157E-02  2.2425016315160587E-01  6.9171230449189803E-06
  7.3473114822215399E-02  2.2382673974931799E-01  6.8541418791086203E-06
  7.4205105495593143E-02  2.2339946776125552E-01  6.7917119496439015E-06
  7.4944388773173262E-02  2.2295979359992565E-01  6.7298283284883676E-06
  7.5691037308990766E-02  2.2249773368679360E-01  6.6684854071023774E-06
  7.6445124480911217E-02  2.2203846523729023E-01  6.6076770437153152E-06
  7.7206724397841764E-02  2.2163789760719282E-01  6.5473966981641701E-06
  7.7975911907014583E-02  2.2120434849880086E-01  6.4876375005234583E-06
  7.8752762601342355E-02  2.2074998386360864E-01  6.4283922307415588E-06
  7.9537352826847318E-02  2.2028744446211704E-01  6.3696533743193338E-06
  8.0329759690164440E-02  2.1984630591544202E-01  6.3114134123174258E-06
  8.1130061066118891E-02  2.1944462018984739E-01  6.2536652939362748E-06
  8.1938335605379470E-02  2.1901710873588354E-01  6.1964029131541841E-06
  8.2754662742188179E-02  2.1863846047690774E-01  6.1396214218975213E-06
  8.3579122702166483E-02  2.1823919983826973E-01  6.0833173148709055E-06
  8.4411796510199755E-02  2.1781723913231557E-01  6.0274883331456696E-06
  8.5252765998400135E-02  2.1732573396833602E-01  5.9721332665791403E-06
  8.6102113814148631E-02  2.1680339935388526E-01  5.9172517239878585E-06
  8.6959923428217317E-02  2.1631252648700258E-01  5.8628439168735083E-06
  8.7826279142972599E-02  2.1586764539322956E-01  5.8089104962871716E-06
  8.8701266100660314E-02  2.1547810472216922E-01  5.7554524902040371E-06
  8.9584970291772842E-02  2.1512348003494933E-01  5.7024712688632625E-06
  9.0477478563500177E-02  2.1475494495363026E-01  5.6499683876647547E-06
  9.1378878628265020E-02  2.1434868810115487E-01  5.5979452699763308E-06
  9.2289259072342589E-02  2.1393348152723143E-01  5.5464028198596276E-06
  9.3208709364566641E-02  2.1345169827396063E-01  5.4953410975275127E-06
  9.4137319865122276E-02  2.1299093818691472E-01  5.4447591556996917E-06
  9.5075181834426120E-02  2.1258286234597720E-01  5.3946550367898194E-06
  9.6022387442094917E-02  2.1216265995933795E-01  5.3450258799612571E-06
  9.6979029776003770E-02  2.1173129788878892E-01  5.2958680814209213E-06
  9.7945202851434585E-02  2.1130977455201810E-01  5.2471774636097778E-06
  9.8921001620315252E-02  2.1086379393962770E-01  5.1989494215084704E-06
  9.9906521980551305E-02  2.1044190171158333E-01  5.1511789892977751E-06
  1.0090186078545064E-01  2.1005212168742016E-01  5.1038608075675419E-06
  1.0190711585324154E-01  2.0962679508089477E-01  5.0569890871838357E-06
  1.0292238597668596E-01  2.0920528611788294E-01  5.0105576680830144E-06
  1.0394777093278883E-01  2.0875413206731108E-01  4.9645601917136066E-06
  1.0498337149260348E-01  2.0829815849315469E-01  4.9189903339729768E-06
  1.0602928943113497E-01  2.0790076271170130E-01  4.8738420120840199E-06
  1.0708562753734240E-01  2.0746860449833840E-01  4.8291095155526669E-06
  1.0815248962424064E-01  2.0704005543230822E-01  4.7847875581920676E-06
  1.0922998053910238E-01  2.0662066908720619E-01  4.7408712692990514E-06
  1.1031820617376241E-01  2.0619022470431828E-01  4.6973561500316634E-06
  1.1141727347502435E-01  2.0580365298049194E-01  4.6542380172791334E-06
  1.1252729045517068E-01  2.0542263075183370E-01  4.6115129698711138E-06
  1.1364836620257791E-01  2.0500028804717238E-01  4.5691774235347804E-06
  1.1478061089243763E-01  2.0455394808870989E-01  4.5272281807331144E-06
  1.1592413579758380E-01  2.0410003035119556E-01  4.4856624540362510E-06
  1.1707905329942835E-01  2.0364332888498166E-01  4.4444777966703672E-06
  1.1824547689900554E-01  2.0321727663826858E-01  4.4036719540860827E-06
  1.1942352122812672E-01  2.0277630785373615E-01  4.3632426934832888E-06
  1.2061330206064549E-01  2.0236235143937387E-01  4.3231876661648041E-06
  1.2181493632383572E-01  2.0196989744147106E-01  4.2835043248417879E-06
  1.2302854210988300E-01  2.0156272829958144E-01  4.2441898948139656E-06
  1.2425423868748978E-01  2.0118506351505094E-01  4.2052413840223415E-06
  1.2549214651359700E-01  2.0077928436173775E-01  4.1666556138300500E-06
  1.2674238724522213E-01  2.0039686622363048E-01  4.1284292559019055E-06
  1.2800508375141528E-01  1.9999635897771970E-01  4.0905588506257522E-06
  1.2928036012533384E-01  1.9955897496265032E-01  4.0530408147837952E-06
  1.3056834169643838E-01  1.9912599978163398E-01  4.0158714819251016E-06
  1.3186915504280949E-01  1.9866110132482062E-01  3.9790472018524810E-06
  1.3318292800358725E-01  1.9822597350628862E-01  3.9425644851776474E-06
  1.3450978969153474E-01  1.9778394282610062E-01  3.9064201474909665E-06
  1.3584987050572719E-01  1.9738381733302865E-01  3.8706114065940157E-06
  1.3720330214436660E-01  1.9698975193653467E-01  3.8351359169085904E-06
  1.3857021761772473E-01  1.9655817093775449E-01  3.7999917482176084E-06
  1.3995075126121509E-01  1.9615586479050975E-01  3.7651773278777565E-06
  1.4134503874859480E-01  1.9570161380295573E-01  3.7306913684133607E-06
  1.4275321710529768E-01  1.9528836288865839E-01  3.6965327930859547E-06
  1.4417542472190126E-01  1.9484503385086194E-01  3.6627006706619848E-06
  1.4561180136772711E-01  1.9442752307888686E-01  3.6291941717053761E-06
  1.4706248820457654E-01  1.9406215153322545E-01  3.5960125476506342E-06
  1.4852762780060363E-01  1.9371376696605735E-01  3.5631551239146943E-06
  1.5000736414432669E-01  1.9331855915904048E-01  3.5306212923491968E-06
  1.5150184265877822E-01  1.9293826436158679E-01  3.4984104945659175E-06
  1.5301121021579703E-01  1.9250861523481100E-01  3.4665222021983904E-06
  1.5453561515046216E-01  1.9207904121181843E-01  3.4349558970339314E-06
  1.5607520727567092E-01  1.9163473387826968E-01  3.4037110528006464E-06
  1.5763013789686117E-01  1.9120327104197810E-01  3.3727871216502561E-06
  1.5920055982688205E-01  1.9077668420379490E-01  3.3421835254760565E-06
  1.6078662740101141E-01  1.9035833990178846E-01  3.3118996506275208E-06
  1.6238849649212314E-01  1.8994850081871564E-01  3.2819348437437590E-06
  1.6400632452600589E-01  1.8953253502220579E-01  3.2522884443558252E-06
  1.6564027049683477E-01  1.8912657329683810E-01  3.2229599695814244E-06
  1.6729049498279594E-01  1.8874376268073326E-01  3.1939495374258730E-06
  1.6895716016186804E-01  1.8834707230743117E-01  3.1652584861774665E-06
  1.7064042982776059E-01  1.8793244890877633E-01  3.1368900305532273E-06
  1.7234046940601100E-01  1.8754348078953559E-01  3.1088497593314071E-06
  1.7405744597024125E-01  1.8713567672468431E-01  3.0811458433005112E-06
  1.7579152825857841E-01  1.8672459024527549E-01  3.0537889348417925E-06
  1.7754288669023702E-01  1.8629829329398664E-01  3.0267918334312845E-06
  1.7931169338226699E-01  1.8589578107878732E-01  3.0001690294863975E-06
  1.8109812216646906E-01  1.8547610298409736E-01  2.9739362281959477E-06
  1.8290234860647844E-01  1.8506597888739504E-01  2.9481099207510664E-06
  1.8472455001501803E-01  1.8460689258671367E-01  2.9227070265198790E-06
  1.8656490547132448E-01  1.8422803748402103E-01  2.8977445442269951E-06
  1.8842359583874738E-01  1.8384158498832112E-01  2.8732391416573881E-06
  1.9030080378252398E-01  1.8343875840190424E-01  2.8492066666424792E-06
  1.9219671378773012E-01  1.8304459874265230E-01  2.8256616260059329E-06
  1.9411151217741171E-01  1.8266777066255296E-01  2.8026167336473349E-06
  1.9604538713089553E-01  1.8227118384566651E-01  2.7800826584716392E-06
  1.9799852870228243E-01  1.8186909080175348E-01  2.7580679979850660E-06
  1.9997112883912549E-01  1.8140380636043224E-01  2.7365794467474079E-06
  2.0196338140129405E-01  1.8100795738783595E-01  2.7156220923514886E-06
  2.0397548218002526E-01  1.8059736409777691E-01  2.6951997612343650E-06
  2.0600762891716565E-01  1.8016089933867424E-01  2.6753153495349976E-06
  2.0806002132460494E-01  1.7979502255393096E-01  2.6559711170863773E-06
  2.1013286110390270E-01  1.7937426712464488E-01  2.6371690980062188E-06
  2.1222635196611031E-01  1.7903282309389709E-01  2.6189119155768533E-06
  2.1434069965179198E-01  1.7865350351581807E-01  2.6012041453948333E-06
  2.1647611195124358E-01  1.7823808474155678E-01  2.5840541030934036E-06
  2.1863279872491340E-01  1.7787022758770649E-01  2.5674757050660909E-06
  2.2081097192402646E-01  1.7745436437372838E-01  2.5514899339415968E-06
  2.2301084561141504E-01  1.7706215996885563E-01  2.5361255853541052E-06
  2.2523263598255486E-01  1.7667669053345977E-01  2.5214192272865619E-06
  2.2747656138681258E-01  1.7627606516835620E-01  2.5074145227115948E-06
  2.2974284234890457E-01  1.7587903905522478E-01  2.4941611891557904E-06
  2.3203170159056913E-01  1.7546817416185742E-01  2.4817138671581134E-06
  2.3434336405245390E-01  1.7510956585517118E-01  2.4701311020661362E-06
  2.3667805691622362E-01  1.7474710765309864E-01  2.4594744729389742E-06
  2.3903600962688601E-01  1.7437311433351768E-01  2.4498076677055765E-06
  2.4141745391534045E-01  1.7400154702207798E-01  2.4411953447264198E-06
  2.4382262382115202E-01  1.7364877511816751E-01  2.4337017296486878E-06
  2.4625175571555236E-01  1.7328167222767005E-01  2.4273890404791258E-06
  2.4870508832466867E-01  1.7294444711750281E-01  2.4223160974365878E-06
  2.5118286275298513E-01  1.7259420555574342E-01  2.4185374896316585E-06
  2.5368532250703824E-01  1.7224776409500187E-01  2.4161034163502220E-06
  2.5621271351934688E-01  1.7188006417648422E-01  2.4150601910266592E-06
  2.5876528417258204E-01  1.7152527876194687E-01  2.4154512385936256E-06
  2.6134328532397738E-01  1.7114172369260619E-01  2.4173183552767954E-06
  2.6394697032998199E-01  1.7076814274659999E-01  2.4207030285170670E-06
  2.6657659507115944E-01  1.7039031717923331E-01  2.4256476331004984E-06
  2.6923241797733466E-01  1.7002051552054565E-01  2.4321963411117219E-06
  2.7191470005299223E-01  1.6964161195365723E-01  2.4403955426937811E-06
  2.7462370490292581E-01  1.6933800618249636E-01  2.4502936998991494E-06
  2.7735969875814481E-01  1.6902040964381279E-01  2.4619407421439078E-06
  2.8012295050203895E-01  1.6872749798832654E-01  2.4753872218128172E-06
  2.8291373169680289E-01  1.6841889286659262E-01  2.4906834183134055E-06
  2.8573231661012327E-01  1.6812585872552482E-01  2.5078787183180090E-06
  2.8857898224213463E-01  1.6777372318693731E-01  2.5270214473286417E-06
  2.9145400835264107E-01  1.6746929643967495E-01  2.5481591569741168E-06
  2.9435767748860897E-01  1.6710982638774161E-01  2.5713392561124520E-06
  2.9729027501193661E-01  1.6680699175349203E-01  2.5966098254049353E-06
  3.0025208912749751E-01  1.6647341046474351E-01  2.6240204486032381E-06
  3.0324341091146323E-01  1.6613292492067200E-01  2.6536228459618687E-06
  3.0626453433991124E-01  1.6581923890035105E-01  2.6854709491255742E-06
  3.0931575631771463E-01  1.6550367019510556E-01  2.7196200599399218E-06
  3.1239737670771972E-01  1.6520185821446484E-01  2.7561249354043529E-06
  3.1550969836021903E-01  1.6487314901970967E-01  2.7950369168132228E-06
  3.1865302714270993E-01  1.6456307615442120E-01  2.8364003645329922E-06
  3.2182767196995632E-01  1.6426661261371786E-01  2.8802490034462004E-06
  3.2503394483434933E-01  1.6394977568635827E-01  2.9266028106513957E-06
  3.2827216083656491E-01  1.6362066987841017E-01  2.9754658362347347E-06
  3.3154263821653396E-01  1.6332004724488405E-01  3.0268250423483219E-06
  3.3484569838471673E-01  1.6300688074323461E-01  3.0806499726261786E-06
  3.3818166595368876E-01  1.6266125097036546E-01  3.1368928850004022E-06
  3.4155086877004465E-01  1.6234129580737822E-01  3.1954890411105625E-06
  3.4495363794661660E-01  1.6200679593755382E-01  3.2563570987101845E-06
  3.4839030789501380E-01  1.6170523360143621E-01  3.3193995430786852E-06
  3.5186121635848949E-01  1.6138559594474200E-01  3.3845033498520285E-06
  3.5536670444513191E-01  1.6107568714138965E-01  3.4515412413836224E-06
  3.5890711666138619E-01  1.6076772277420578E-01  3.5203733525253541E-06
  3.6248280094591306E-01  1.6045496969954309E-01  3.5908489652121005E-06
  3.6609410870378223E-01  1.6009485702137638E-01  3.6628081240843130E-06
  3.6974139484100582E-01  1.5980079053338186E-01  3.7360827242665538E-06
  3.7342501779941972E-01  1.5943338945211341E-01  3.8104967927759504E-06
  3.7714533959190855E-01  1.5908085701469157E-01  3.8858659173328791E-06
  3.8090272583798146E-01  1.5874113269311693E-01  3.9619959982791766E-06
  3.8469754579970827E-01  1.5838976283755335E-01  4.0386816893138087E-06
  3.8853017241800403E-01  1.5804650393790734E-01  4.1157049040544916E-06
  3.9240098234928250E-01  1.5770700496473203E-01  4.1928339940339916E-06
  3.9631035600247516E-01  1.5737753661000103E-01  4.2698241172821106E-06
  4.0025867757641115E-01  1.5703858801737391E-01  4.3464191067677524E-06
  4.0424633509757901E-01  1.5665366632532451E-01  4.4223550275885869E-06
  4.0827372045825955E-01  1.5634344029124017E-01  4.4973654277212744E-06
