 #p(MeV) \t \delta f_\\nu \t \delta f_\\nubar
  5.2582843492265030E-01  2.6826006036108441E-01  1.2567609073997778E-05
  5.3106710638896248E-01  2.6776345069730978E-01  1.2438881829711500E-05
  5.3635796917264944E-01  2.6733712400945808E-01  1.2311168442056115E-05
  5.4170154324020103E-01  2.6702387996463822E-01  1.2184465393355700E-05
  5.4709835373837612E-01  2.6668215731369477E-01  1.2058769146784597E-05
  5.5254893104581515E-01  2.6614523309874716E-01  1.1934076174701908E-05
  5.5805381082516148E-01  2.6560793189358395E-01  1.1810382927325066E-05
  5.6361353407570491E-01  2.6505881228042616E-01  1.1687685922688201E-05
  5.6922864718655075E-01  2.6460724932724944E-01  1.1565981891506406E-05
  5.7489970199031426E-01  2.6416529260519017E-01  1.1445267488932173E-05
  5.8062725581735486E-01  2.6372550507461501E-01  1.1325538646688795E-05
  5.8641187155054730E-01  2.6324276977404271E-01  1.1206790028632177E-05
  5.9225411768059977E-01  2.6278964870250071E-01  1.1089015339730628E-05
  5.9815456836192438E-01  2.6229806807953382E-01  1.0972208170270434E-05
  6.0411380346906085E-01  2.6182965751490739E-01  1.0856362136847603E-05
  6.1013240865366669E-01  2.6142100426369391E-01  1.0741470883129155E-05
  6.1621097540207104E-01  2.6097270355777441E-01  1.0627528077972836E-05
  6.2235010109340394E-01  2.6056737432701077E-01  1.0514527398706179E-05
  6.2855038905830651E-01  2.6012112199697196E-01  1.0402462594172637E-05
  6.3481244863822128E-01  2.5968406014375217E-01  1.0291327515326275E-05
  6.4113689524527862E-01  2.5924668357184538E-01  1.0181115822257489E-05
  6.4752435042277479E-01  2.5876437284700904E-01  1.0071820819703226E-05
  6.5397544190625623E-01  2.5824681548477613E-01  9.9634357740280865E-06
  6.6049080368521207E-01  2.5772840375176642E-01  9.8559544624827854E-06
  6.6707107606537741E-01  2.5724855584264383E-01  9.7493713957403871E-06
  6.7371690573166365E-01  2.5683569232401277E-01  9.6436813249915869E-06
  6.8042894581170943E-01  2.5641945869860638E-01  9.5388790333484481E-06
  6.8720785594006872E-01  2.5601514393924801E-01  9.4349593324010732E-06
  6.9405430232303833E-01  2.5551145871087666E-01  9.3319170624367969E-06
  7.0096895780412805E-01  2.5498165977379406E-01  9.2297471012194760E-06
  7.0795250193018733E-01  2.5450734972543970E-01  9.1284443317683543E-06
  7.1500562101818710E-01  2.5400356682073699E-01  9.0280035431141263E-06
  7.2212900822266857E-01  2.5355448188185975E-01  8.9284195970959398E-06
  7.2932336360386607E-01  2.5312353720660757E-01  8.8296877800359977E-06
  7.3658939419650260E-01  2.5268560271876500E-01  8.7318039082675525E-06
  7.4392781407927855E-01  2.5222140371898838E-01  8.6347641158118356E-06
  7.5133934444504569E-01  2.5184228349441562E-01  8.5385645482179784E-06
  7.5882471367168469E-01  2.5141422226678800E-01  8.4432012781082708E-06
  7.6638465739368800E-01  2.5098041298679774E-01  8.3486703503740078E-06
  7.7401991857445385E-01  2.5051374929410986E-01  8.2549677864773179E-06
  7.8173124757930212E-01  2.5002048632216117E-01  8.1620895848821955E-06
  7.8951940224921968E-01  2.4957318161372777E-01  8.0700317187064923E-06
  7.9738514797533466E-01  2.4912658537016769E-01  7.9787901340502788E-06
  8.0532925777413988E-01  2.4861723727781695E-01  7.8883607703069592E-06
  8.1335251236345885E-01  2.4818648614320168E-01  7.7987395559355132E-06
  8.2145570023917436E-01  2.4773914576965556E-01  7.7099224297205078E-06
  8.2963961775271744E-01  2.4727188621978879E-01  7.6219055274757022E-06
  8.3790506918932983E-01  2.4684524762362745E-01  7.5346854826837027E-06
  8.4625286684710788E-01  2.4640010484593827E-01  7.4482596496083475E-06
  8.5468383111683011E-01  2.4593671253294888E-01  7.3626258392055781E-06
  8.6319879056258264E-01  2.4545578408761509E-01  7.2777818382828095E-06
  8.7179858200318905E-01  2.4501270887043874E-01  7.1937253442010525E-06
  8.8048405059444756E-01  2.4459452381695887E-01  7.1104539662387337E-06
  8.8925604991219198E-01  2.4419475225156137E-01  7.0279652276213127E-06
  8.9811544203617522E-01  2.4374013151912011E-01  6.9462565682265812E-06
  9.0706309763479509E-01  2.4331902455424709E-01  6.8653253578683931E-06
  9.1609989605065700E-01  2.4283921503567890E-01  6.7851688757980005E-06
  9.2522672538699335E-01  2.4233571222301395E-01  6.7057840817622039E-06
  9.3444448259494495E-01  2.4185368402558019E-01  6.6271671422179563E-06
  9.4375407356170782E-01  2.4138207351418356E-01  6.5493129165776434E-06
  9.5315641319956057E-01  2.4105051785980922E-01  6.4722146534749773E-06
  9.6265242553578101E-01  2.4061457993746291E-01  6.3958643358708286E-06
  9.7224304380345228E-01  2.4016022443753002E-01  6.3202537683909052E-06
  9.8192921053318216E-01  2.3963240745045894E-01  6.2453748911670010E-06
  9.9171187764572610E-01  2.3919404766170160E-01  6.1712197808586454E-06
  1.0015920065455444E+00  2.3865908796033927E-01  6.0977806484602264E-06
  1.0115705682152805E+00  2.3825315061344138E-01  6.0250498390827017E-06
  1.0216485433111875E+00  2.3780878936468750E-01  5.9530198375072570E-06
  1.0318269222595056E+00  2.3733479750260300E-01  5.8816833161472126E-06
  1.0421067053537931E+00  2.3691865212888982E-01  5.8110333798758981E-06
  1.0524889028532345E+00  2.3650971508418395E-01  5.7410639964561453E-06
  1.0629745350819260E+00  2.3613793653752199E-01  5.6717703816406818E-06
  1.0735646325291457E+00  2.3568151309022572E-01  5.6031491535289556E-06
  1.0842602359506297E+00  2.3523830623866765E-01  5.5351981211304831E-06
  1.0950623964708508E+00  2.3477099741183044E-01  5.4679154439985951E-06
  1.1059721756863226E+00  2.3432270772392347E-01  5.4012991835631824E-06
  1.1169906457699259E+00  2.3388713123381219E-01  5.3353472876516204E-06
  1.1281188895762786E+00  2.3341904755197881E-01  5.2700575935147016E-06
  1.1393580007481581E+00  2.3301350648851762E-01  5.2054278295739946E-06
  1.1507090838239751E+00  2.3257069596198338E-01  5.1414556081852755E-06
  1.1621732543463266E+00  2.3213094608079987E-01  5.0781383806025898E-06
  1.1737516389716289E+00  2.3165532380896844E-01  5.0154732372020393E-06
  1.1854453755808367E+00  2.3120653636333577E-01  4.9534565739891668E-06
  1.1972556133912751E+00  2.3074624543698219E-01  4.8920838816506327E-06
  1.2091835130695745E+00  2.3031098791396970E-01  4.8313498104126159E-06
  1.2212302468457432E+00  2.2988629158879428E-01  4.7712484571689222E-06
  1.2333969986283646E+00  2.2948071592480024E-01  4.7117737623133715E-06
  1.2456849641209486E+00  2.2909617727236112E-01  4.6529197344407711E-06
  1.2580953509394446E+00  2.2866231022945799E-01  4.5946804676782352E-06
  1.2706293787309162E+00  2.2821878178599528E-01  4.5370501396501603E-06
  1.2832882792934055E+00  2.2775318715156409E-01  4.4800230101461823E-06
  1.2960732966969928E+00  2.2725087837242758E-01  4.4235934254398613E-06
  1.3089856874060537E+00  2.2678441698917637E-01  4.3677558436417900E-06
  1.3220267204027454E+00  2.2629526737929342E-01  4.3125049513693424E-06
  1.3351976773117125E+00  2.2587675864467949E-01  4.2578358739800156E-06
  1.3484998525260445E+00  2.2546385300100710E-01  4.2037442596211113E-06
  1.3619345533344811E+00  2.2502350201653459E-01  4.1502260823455090E-06
  1.3755031000498885E+00  2.2467581136252873E-01  4.0972772475339771E-06
  1.3892068261390171E+00  2.2424083931424066E-01  4.0448933656724175E-06
  1.4030470783535463E+00  2.2381718192140471E-01  3.9930699676603180E-06
  1.4170252168624387E+00  2.2338966258079140E-01  3.9418025880804603E-06
  1.4311426153856166E+00  2.2294972624668119E-01  3.8910867668404341E-06
  1.4454006613289601E+00  2.2248738766152168E-01  3.8409180499768150E-06
  1.4598007559206621E+00  2.2202782350492856E-01  3.7912919879755239E-06
  1.4743443143489297E+00  2.2162694372163175E-01  3.7422041250613446E-06
  1.4890327659010703E+00  2.2119306068751096E-01  3.6936499445911883E-06
  1.5038675541039510E+00  2.2073833868461579E-01  3.6456247574682875E-06
  1.5188501368658656E+00  2.2027541658439984E-01  3.5981236884708947E-06
  1.5339819866198141E+00  2.1983386858834675E-01  3.5511419148625180E-06
  1.5492645904682045E+00  2.1943174448409444E-01  3.5046751052401121E-06
  1.5646994503290013E+00  2.1900375924087589E-01  3.4587197212824735E-06
  1.5802880830833304E+00  2.1862460116356736E-01  3.4132725496407180E-06
  1.5960320207245486E+00  2.1822478653714059E-01  3.3683303693520561E-06
  1.6119328105088055E+00  2.1780222172792960E-01  3.3238899400000559E-06
  1.6279920151071010E+00  2.1731005282883967E-01  3.2799480021391302E-06
  1.6442112127588600E+00  2.1678698847977526E-01  3.2365012785212451E-06
  1.6605919974270329E+00  2.1629531361722526E-01  3.1935464786267991E-06
  1.6771359789547464E+00  2.1584954758255734E-01  3.1510803247368212E-06
  1.6938447832235155E+00  2.1545902557776889E-01  3.1090996338872537E-06
  1.7107200523130237E+00  2.1510330439843389E-01  3.0676013893172142E-06
  1.7277634446625039E+00  2.1473353203736362E-01  3.0265826606122127E-06
  1.7449766352337248E+00  2.1432586659678751E-01  2.9860403392779092E-06
  1.7623613156755975E+00  2.1390904525740265E-01  2.9459708247492395E-06
  1.7799191944904238E+00  2.1342538735011279E-01  2.9063701505525685E-06
  1.7976519972018050E+00  2.1296243525652006E-01  2.8672343141896007E-06
  1.8155614665242190E+00  2.1255176513638496E-01  2.8285593136287153E-06
  1.8336493625342840E+00  2.1212843508945328E-01  2.7903411482940352E-06
  1.8519174628437365E+00  2.1169322997613690E-01  2.7525758198924972E-06
  1.8703675627741287E+00  2.1126687574436637E-01  2.7152593320278461E-06
  1.8890014755332629E+00  2.1081463404070236E-01  2.6783876811789609E-06
  1.9078210323933871E+00  2.1038431928722626E-01  2.6419567967794730E-06
  1.9268280828711719E+00  2.0998260417803896E-01  2.6059624135312625E-06
  1.9460244949094656E+00  2.0953903190910458E-01  2.5703999655955215E-06
  1.9654121550608716E+00  2.0908620953583298E-01  2.5352645961848027E-06
  1.9849929686731564E+00  2.0856882426713078E-01  2.5005512928482236E-06
  2.0047688600764961E+00  2.0788024305158645E-01  2.4662550574954989E-06
  2.0247417727725900E+00  2.8030779012359558E-03  2.4323709674317738E-06
  2.0449136696256649E+00  4.6661295337549268E-04  2.3988941758299031E-06
  2.0652865330553793E+00  2.5119063700254494E-04  2.3658199101128039E-06
  2.0858623652316433E+00  1.7027289064466873E-04  2.3331434703968473E-06
  2.1066431882713861E+00  1.2786797459082031E-04  2.3008602286526330E-06
  2.1276310444372886E+00  1.0177514276367765E-04  2.2689656294867118E-06
  2.1488279963384791E+00  8.4107760834924183E-05  2.2374552131638693E-06
  2.1702361271332435E+00  7.1357974879416845E-05  2.2063246993577925E-06
  2.1918575407337548E+00  6.1728029399917345E-05  2.1755700961747331E-06
  2.2136943620128324E+00  5.4201315720136366E-05  2.1451877524609886E-06
  2.2357487370127664E+00  4.8159643821056422E-05  2.1151743114866418E-06
  2.2580228331562253E+00  4.3205466963289024E-05  2.0855265802622779E-06
  2.2805188394592637E+00  3.9071497385031388E-05  2.0562413976356796E-06
  2.3032389667464463E+00  3.5571388585564803E-05  2.0273156011299050E-06
  2.3261854478681210E+00  3.2571249681264877E-05  1.9987460271142463E-06
  2.3493605379198597E+00  2.9972399523819664E-05  1.9705295115951482E-06
  2.3727665144640739E+00  2.7700505483858288E-05  1.9426628906342785E-06
  2.3964056777538487E+00  2.5698509394869653E-05  1.9151430009706915E-06
  2.4202803509590041E+00  2.3921884571269592E-05  1.8879666798648379E-06
  2.4443928803944086E+00  2.2335374311003124E-05  1.8611307463371259E-06
  2.4687456357505586E+00  2.0910698680238734E-05  1.8346319752571838E-06
  2.4933410103264713E+00  1.9624910067128886E-05  1.8084671123837797E-06
  2.5181814212648881E+00  1.8459193375787711E-05  1.7826329549148663E-06
  2.5432693097898178E+00  1.7397978493240473E-05  1.7571264623220008E-06
  2.5686071414464537E+00  1.6428270950318899E-05  1.7319447106555502E-06
  2.5941974063434836E+00  1.5539137752060723E-05  1.7070847842657265E-06
  2.6200426193977981E+00  1.4721313830157562E-05  1.6825437664284487E-06
  2.6461453205816534E+00  1.3966895688869253E-05  1.6583187399759340E-06
  2.6725080751722925E+00  1.3269100192442587E-05  1.6344067879905128E-06
  2.6991334740040500E+00  1.2622072885283321E-05  1.6108049944680128E-06
  2.7260241337229609E+00  1.2020734365616157E-05  1.5875104415347892E-06
  2.7531826970439282E+00  1.1460656183045609E-05  1.5645202076088714E-06
  2.7806118330104339E+00  1.0937959860894015E-05  1.5418313773847942E-06
  2.8083142372568388E+00  1.0449234185280684E-05  1.5194410619348929E-06
  2.8362926322733024E+00  9.9914670549147135E-06  1.4973464196480314E-06
  2.8645497676733447E+00  9.5619891194072146E-06  1.4755446688383957E-06
  2.8930884204640570E+00  9.1584266672714475E-06  1.4540330698112756E-06
  2.9219113953190248E+00  8.7786614089069572E-06  1.4328088866446051E-06
  2.9510215248539571E+00  8.4207969283644476E-06  1.4118693806987269E-06
  2.9804216699050707E+00  8.0831304116568902E-06  1.3912118113978574E-06
  3.0101147198102289E+00  7.7641285916417960E-06  1.3708334370718853E-06
  3.0401035926929110E+00  7.4624071932126434E-06  1.3507315159050150E-06
  3.0703912357489891E+00  7.1767132988648901E-06  1.3309033072634366E-06
  3.1009806255363621E+00  6.9059101597194303E-06  1.3113460713305175E-06
  3.1318747682674846E+00  6.6489641158858039E-06  1.2920571021302266E-06
  3.1630767001048135E+00  6.4049335524507977E-06  1.2730339111577931E-06
  3.1945894874591780E+00  6.1729602470277627E-06  1.2542746507237612E-06
  3.2264162272911427E+00  5.9522649509638183E-06  1.2357787300681046E-06
  3.2585600474153660E+00  5.7421468676523207E-06  1.2175470422365153E-06
  3.2910241068079920E+00  5.5419673445713116E-06  1.1995808141914407E-06
  3.3238115959170882E+00  5.3511371285721118E-06  1.1818810667017759E-06
  3.3569257369762129E+00  5.1691114740211878E-06  1.1644486109836511E-06
  3.3903697843210718E+00  4.9953859786892733E-06  1.1472840569305796E-06
  3.4241470247093404E+00  4.8294928847532623E-06  1.1303878211692630E-06
  3.4582607776436798E+00  4.6709977850307123E-06  1.1137601349473615E-06
  3.4927143956979667E+00  4.5194966835369270E-06  1.0974010521739679E-06
  3.5275112648467641E+00  4.3746133523418411E-06  1.0813104473529707E-06
  3.5626548047980884E+00  4.2359968473367514E-06  1.0654879444794811E-06
  3.5981484693294861E+00  4.1033188954959079E-06  1.0499327045469401E-06
  3.6339957466274604E+00  3.9762704688898966E-06  1.0346430649162901E-06
  3.6702001596302614E+00  3.8545565065288373E-06  1.0196162126306011E-06
  3.7067652663741306E+00  3.7378963893495529E-06  1.0048487177919874E-06
  3.7436946603429586E+00  3.6260274772391120E-06  9.9033713069017629E-07
  3.7809919708214399E+00  3.5187040873073832E-06  9.7607802516735558E-07
  3.8186608632517443E+00  3.4156961703318227E-06  9.6206799969968027E-07
  3.8567050395937525E+00  3.3167881090167506E-06  9.4830367851688660E-07
  3.8951282386888604E+00  3.2217776249620773E-06  9.3478171253685316E-07
  3.9339342366274210E+00  3.1304747774742896E-06  9.2149877508789427E-07
  3.9731268471198513E+00  3.0427010614748721E-06  9.0845156642819382E-07
  4.0127099218714255E+00  2.9582888266957423E-06  8.9563698851759121E-07
  4.0526873509607952E+00  2.8770816664845178E-06  8.8305277669820160E-07
  4.0930630632223135E+00  2.7989372099126265E-06  8.7069873187715633E-07
  4.1338410266321333E+00  2.7237356963298793E-06  8.5857830468371567E-07
  4.1750252486981649E+00  2.6513815203242798E-06  8.4669792327747038E-07
  4.2166197768539195E+00  2.5817857034279231E-06  8.3506407312400930E-07
  4.2586286988562856E+00  2.5148620330451253E-06  8.2368279454679841E-07
  4.3010561431872461E+00  2.4505270293174999E-06  8.1255971101921275E-07
  4.3439062794596115E+00  2.3886999174826649E-06  8.0170005862071282E-07
  4.3871833188268061E+00  2.3293026012297461E-06  7.9110871597184134E-07
  4.4308915143967180E+00  2.2722596379577709E-06  7.8079023563204577E-07
  4.4750351616496626E+00  2.2174982165526909E-06  7.7074887781956191E-07
  4.5196185988605562E+00  2.1649480435663653E-06  7.6098857429932795E-07
  4.5646462075252474E+00  2.1145407742720798E-06  7.5151261223318238E-07
  4.6101224127911156E+00  2.0662082187272368E-06  7.4232284763540054E-07
  4.6560516838919570E+00  2.0198774972712889E-06  7.3341844808240566E-07
  4.7024385345872171E+00  1.9754658039079792E-06  7.2479542952700333E-07
  4.7492875236055703E+00  1.9328899407985950E-06  7.1644900806107408E-07
  4.7966032550929381E+00  1.8920713331911039E-06  7.0837459133314834E-07
  4.8443903790649836E+00  1.8529358354692812E-06  7.0056779217931811E-07
  4.8926535918640752E+00  1.8154134639705632E-06  6.9302442684013255E-07
  4.9413976366208345E+00  1.7794381491111287E-06  6.8574051334567929E-07
  4.9906273037202835E+00  1.7449475077158113E-06  6.7871227233979415E-07
  5.0403474312726164E+00  1.7118826422805892E-06  6.7193613766628722E-07
  5.0905629055886674E+00  1.6801879264668781E-06  6.6540874270084699E-07
  5.1412786616601238E+00  1.6498105932487688E-06  6.5912675589635137E-07
  5.1924996836445292E+00  1.6206997253983384E-06  6.5308640590938893E-07
  5.2442310053550880E+00  1.5928037681880398E-06  6.4728260625633074E-07
  5.2964777107553820E+00  1.5660660819346094E-06  6.4170805794732518E-07
  5.3492449344590085E+00  1.5404280172789671E-06  6.3635443847883139E-07
  5.4025378622341851E+00  1.5158339864548099E-06  6.3121366351692896E-07
  5.4563617315133710E+00  1.4922315737801851E-06  6.2627794286611837E-07
  5.5107218319080173E+00  1.4695713094492469E-06  6.2153976100004428E-07
  5.5656235057283912E+00  1.4478064609658163E-06  6.1699185868423182E-07
  5.6210721485085848E+00  1.4268928404175639E-06  6.1262721535349121E-07
  5.6770732095367960E+00  1.4067886287866377E-06  6.0843903454629666E-07
  5.7336321923908553E+00  1.3874542065114884E-06  6.0442072453142052E-07
  5.7907546554790743E+00  1.3688518143385394E-06  6.0056573981308211E-07
  5.8484462125865422E+00  1.3509445102217007E-06  5.9686698126045917E-07
  5.9067125334268127E+00  1.3336932426123136E-06  5.9331543422028296E-07
  5.9655593441990717E+00  1.3170498927113258E-06  5.8989804425718552E-07
  6.0249924281509619E+00  1.3009565283286149E-06  5.8659823637250919E-07
  6.0850176261468558E+00  1.2853559986811336E-06  5.8339913502615673E-07
  6.1456408372419080E+00  1.2701936852019424E-06  5.8028405904052466E-07
  6.2068680192618366E+00  1.2554173195797794E-06  5.7723649901581623E-07
  6.2687051893883510E+00  1.2409768263039845E-06  5.7424010016769180E-07
  6.3311584247505674E+00  1.2268241884308233E-06  5.7127865060763083E-07
  6.3942338630222215E+00  1.2129133348325374E-06  5.6833607492899113E-07
  6.4579377030248395E+00  1.1992000473591705E-06  5.6539643290234165E-07
  6.5222762053369721E+00  1.1856419290919673E-06  5.6244395783455923E-07
  6.5872556929094408E+00  1.1721986288473289E-06  5.5946326826454602E-07
  6.6528825516867176E+00  1.1588327918447272E-06  5.5643995503377689E-07
  6.7191632312345471E+00  1.1455128119887567E-06  5.5336173002534063E-07
  6.7861042453737719E+00  1.1322154143028314E-06  5.5021905141994804E-07
  6.8537121728204626E+00  1.1189206477518676E-06  5.4700328185590525E-07
  6.9219936578324912E+00  1.1056095823437953E-06  5.4370596797315819E-07
  6.9909554108624823E+00  1.0922642863953994E-06  5.4031885170772295E-07
  7.0606042092172752E+00  1.0788678352580480E-06  5.3683389138560466E-07
  7.1309468977240096E+00  1.0654043225668251E-06  5.3324328387140158E-07
  7.2019903894027948E+00  1.0518588734245791E-06  5.2953948749120760E-07
  7.2737416661460585E+00  1.0382176530324734E-06  5.2571523994074540E-07
  7.3462077794047911E+00  1.0244679070654649E-06  5.2176360327557066E-07
  7.4193958508814335E+00  1.0105982227199041E-06  5.1767817971735133E-07
  7.4933130732298201E+00  9.9659950249606507E-07  5.1345376930921260E-07
  7.5679667107620867E+00  9.8246783295567287E-07  5.0908782891145247E-07
  7.6433641001624899E+00  9.6820948406741259E-07  5.0458224266629662E-07
  7.7195126512085048E+00  9.5383657358078305E-07  4.9994126644940090E-07
  7.7964198474990063E+00  9.3936146481603327E-07  4.9516941818465971E-07
