 #p(MeV) \t \delta f_\\nu \t \delta f_\\nubar
  4.6697864026042687E-02  2.6826318896553270E-01  1.6382100432361670E-05
  4.7163100881951671E-02  2.6776659787080620E-01  1.6245472024166503E-05
  4.7632972753543036E-02  2.6734028905647533E-01  1.6109811750312210E-05
  4.8107525818092155E-02  2.6702706160423395E-01  1.5975117404167794E-05
  4.8586806712924660E-02  2.6668535618618622E-01  1.5841387258726158E-05
  4.9070862540000010E-02  2.6614845214127314E-01  1.5708619948878396E-05
  4.9559740870540346E-02  2.6561117140418933E-01  1.5576814328947913E-05
  5.0053489749705658E-02  2.6506207272453125E-01  1.5445969481571200E-05
  5.0552157701315582E-02  2.6461052966478088E-01  1.5316084803941945E-05
  5.1055793732617955E-02  2.6416859301395362E-01  1.5187159678513810E-05
  5.1564447339105264E-02  2.6372882584472779E-01  1.5059192797889921E-05
  5.2078168509378728E-02  2.6324611183942853E-01  1.4932181572941124E-05
  5.2597007730061027E-02  2.6279301199068428E-01  1.4806121867755689E-05
  5.3121015990758080E-02  2.6230145348618039E-01  1.4681008042933275E-05
  5.3650244789069858E-02  2.6183306507300641E-01  1.4556833175893548E-05
  5.4184746135651669E-02  2.6142443348527811E-01  1.4433589338012677E-05
  5.4724572559325321E-02  2.6097615537874358E-01  1.4311267855857078E-05
  5.5269777112241562E-02  2.6057084850455087E-01  1.4189859514908695E-05
  5.5820413375093948E-02  2.6012461950365912E-01  1.4069354794962968E-05
  5.6376535462384372E-02  2.5968758123659369E-01  1.3949744028808302E-05
  5.6938198027741402E-02  2.5925022865209130E-01  1.3831017201134717E-05
  5.7505456269291301E-02  2.5876794298060135E-01  1.3713163850190511E-05
  5.8078365935082754E-02  2.5825041161175466E-01  1.3596173428642547E-05
  5.8656983328565691E-02  2.5773202631614800E-01  1.3480035886192268E-05
  5.9241365314124321E-02  2.5725220470736226E-01  1.3364742128842874E-05
  5.9831569322665867E-02  2.5683936692532461E-01  1.3250284212666473E-05
  6.0427653357264403E-02  2.5642315953231587E-01  1.3136655312227980E-05
  6.1029675998861284E-02  2.5601887128196954E-01  1.3023849567025860E-05
  6.1637696412022346E-02  2.5551521455213799E-01  1.2911861889370934E-05
  6.2251774350752222E-02  2.5498544501641690E-01  1.2800687789537712E-05
  6.2871970164366908E-02  2.5451116403230017E-01  1.2690323188377724E-05
  6.3498344803424492E-02  2.5400741117847608E-01  1.2580764196280307E-05
  6.4130959825715303E-02  2.5355835598465654E-01  1.2472007190082316E-05
  6.4769877402311576E-02  2.5312744132683590E-01  1.2364049098577982E-05
  6.5415160323677196E-02  2.5268953754009166E-01  1.2256887462288525E-05
  6.6066872005838884E-02  2.5222537025338948E-01  1.2150520189959429E-05
  6.6725076496618074E-02  2.5184628099519568E-01  1.2044945207945561E-05
  6.7389838481925562E-02  2.5141825214527735E-01  1.1940160185841077E-05
  6.8061223292118597E-02  2.5098447598789142E-01  1.1836162402996018E-05
  6.8739296908421163E-02  2.5051784662880044E-01  1.1732948728046135E-05
  6.9424125969408446E-02  2.5002461913072038E-01  1.1630515662550528E-05
  7.0115777777555899E-02  2.4957734986491392E-01  1.1528859406757287E-05
  7.0814320305853315E-02  2.4913078979579636E-01  1.1427975928023486E-05
  7.1519822204485203E-02  2.4862147970022339E-01  1.1327861042363144E-05
  7.2232352807577158E-02  2.4819076603933574E-01  1.1228510458294528E-05
  7.2951982140010099E-02  2.4774346423731439E-01  1.1129919834359142E-05
  7.3678780924301787E-02  2.4727624444733692E-01  1.1032084992427949E-05
  7.4412820587557271E-02  2.4684964578788393E-01  1.0935002236368049E-05
  7.5154173268488611E-02  2.4640454416873109E-01  1.0838668609007244E-05
  7.5902911824504191E-02  2.4594119427104680E-01  1.0743081987791009E-05
  7.6659109838868908E-02  2.4546030952777734E-01  1.0648241027848244E-05
  7.7422841627935890E-02  2.4501727835590584E-01  1.0554145017637866E-05
  7.8194182248449720E-02  2.4459913794815680E-01  1.0460793709867934E-05
  7.8973207504923010E-02  2.4419941177756621E-01  1.0368187166300833E-05
  7.9759993957085926E-02  2.4374483856544998E-01  1.0276325631849565E-05
  8.0554618927410462E-02  2.4332377968762503E-01  1.0185209450057756E-05
  8.1357160508709211E-02  2.4284402057283597E-01  1.0094838972297156E-05
  8.2167697571810083E-02  2.4234056990367348E-01  1.0005214280265898E-05
  8.2986309773307565E-02  2.4185859480031224E-01  9.9163346784825996E-06
  8.3813077563390875E-02  2.4138703859184435E-01  9.8281981587336691E-06
  8.4648082193750404E-02  2.4105553600120991E-01  9.7408010766461405E-06
  8.5491405725562977E-02  2.4061965465333468E-01  9.6541381295457867E-06
  8.6343131037556184E-02  2.4016535766665742E-01  9.5682025689098025E-06
  8.7203341834153819E-02  2.3963760230030018E-01  9.4829865220890847E-06
  8.8072122653701596E-02  2.3919930407854859E-01  9.3984813209345559E-06
  8.8949558876775664E-02  2.3866440968074409E-01  9.3146777828944804E-06
  8.9835736734573277E-02  2.3825853688216164E-01  9.2315664304392605E-06
  9.0730743317387189E-02  2.3781424289033151E-01  9.1491376568055559E-06
  9.1634666583164950E-02  2.3734032091641447E-01  9.0673818858895608E-06
  9.2547595366152619E-02  2.3692424631546508E-01  8.9862898923440911E-06
  9.3469619385625355E-02  2.3651538206353237E-01  8.9058532823826940E-06
  9.4400829254704721E-02  2.3614367777126641E-01  8.8260649113749505E-06
  9.5341316489263556E-02  2.3568733278641960E-01  8.7469190578620721E-06
  9.6291173516920139E-02  2.3524420660820403E-01  8.6684113353177568E-06
  9.7250493686121278E-02  2.3477698161441760E-01  8.5905384380351392E-06
  9.8219371275316686E-02  2.3432877808819080E-01  8.5132978371839332E-06
  9.9197901502223906E-02  2.3389329035772813E-01  8.4366875062293437E-06
  1.0018618053318606E-01  2.3342529922907024E-01  8.3607057081992342E-06
  1.0118430549262310E-01  2.3301985245173998E-01  8.2853508450251406E-06
  1.0219237447257620E-01  2.3257714045327146E-01  8.2106213490348876E-06
  1.0321048654234834E-01  2.3213749258098373E-01  8.1365155730225323E-06
  1.0423874175824042E-01  2.3166197695605434E-01  8.0630315491655040E-06
  1.0527724117338422E-01  2.3121329947488883E-01  7.9901666301181726E-06
  1.0632608684767378E-01  2.3075312300672396E-01  7.9179172641148788E-06
  1.0738538185779517E-01  2.3031798375172999E-01  7.8462790518429673E-06
  1.0845523030735689E-01  2.2989341012098199E-01  7.7752470232990066E-06
  1.0953573733712040E-01  2.2948796162283810E-01  7.7048159775358866E-06
  1.1062700913533306E-01  2.2910355483996017E-01  7.6349807605529307E-06
  1.1172915294816428E-01  2.2866982661935170E-01  7.5657364357968204E-06
  1.1284227709024473E-01  2.2822644327105690E-01  7.4970783576435916E-06
  1.1396649095531133E-01  2.2776100077243591E-01  7.4290021791386067E-06
  1.1510190502695836E-01  2.2725885206647478E-01  7.3615038297509607E-06
  1.1624863088949480E-01  2.2679255707560389E-01  7.2945795003898835E-06
  1.1740678123891102E-01  2.2630358241109635E-01  7.2282257221068257E-06
  1.1857646989395357E-01  2.2588525490283895E-01  7.1624395464976356E-06
  1.1975781180731140E-01  2.2547253931069081E-01  7.0972186029350921E-06
  1.2095092307691253E-01  2.2503238894165345E-01  7.0325608813053487E-06
  1.2215592095733395E-01  2.2468490632434385E-01  6.9684643201834102E-06
  1.2337292387132509E-01  2.2425015642444276E-01  6.9049263874732710E-06
  1.2460205142144565E-01  2.2382673301107198E-01  6.8419438027538042E-06
  1.2584342440181989E-01  2.2339946101182262E-01  6.7795124404492293E-06
  1.2709716481000796E-01  2.2295978683899317E-01  6.7176273726869976E-06
  1.2836339585899501E-01  2.2249772691380462E-01  6.6562829910915058E-06
  1.2964224198930055E-01  2.2203845845230313E-01  6.5954731540561740E-06
  1.3093382888120753E-01  2.2163789081163213E-01  6.5351913215820420E-06
  1.3223828346711419E-01  2.2120434169185113E-01  6.4754306239076954E-06
  1.3355573394400819E-01  2.2074997704475138E-01  6.4161838411455751E-06
  1.3488630978606536E-01  2.2028743763114278E-01  6.3574434589606982E-06
  1.3623014175737430E-01  2.1984629907286452E-01  6.2992019586887160E-06
  1.3758736192478688E-01  2.1944461333662238E-01  6.2414522905508143E-06
  1.3895810367089753E-01  2.1901710187137136E-01  6.1841883497953987E-06
  1.4034250170715179E-01  2.1863845360229564E-01  6.1274052884504815E-06
  1.4174069208708487E-01  2.1823919295304506E-01  6.0710996003799676E-06
  1.4315281221969264E-01  2.1781723223591393E-01  6.0152690256337827E-06
  1.4457900088293585E-01  2.1732572705904604E-01  5.9599123530446646E-06
  1.4601939823737858E-01  2.1680339243094138E-01  5.9050291904043291E-06
  1.4747414583996260E-01  2.1631251955116323E-01  5.8506197481893801E-06
  1.4894338665791906E-01  2.1586763844560847E-01  5.7966846764255661E-06
  1.5042726508281923E-01  2.1547809776410909E-01  5.7432250020624587E-06
  1.5192592694476412E-01  2.1512347306729246E-01  5.6902420943133249E-06
  1.5343951952671642E-01  2.1475493797602294E-01  5.6377375074356062E-06
  1.5496819157897521E-01  2.1434868111265853E-01  5.5857126626004762E-06
  1.5651209333379415E-01  2.1393347452761022E-01  5.5341684609242830E-06
  1.5807137652014580E-01  2.1345169126156563E-01  5.4831049607236392E-06
  1.5964619437863331E-01  2.1299093116224246E-01  5.4325212140053322E-06
  1.6123670167655016E-01  2.1258285531030016E-01  5.3824152628131830E-06
  1.6284305472308988E-01  2.1216265291234027E-01  5.3327842459554679E-06
  1.6446541138470785E-01  2.1173129083017772E-01  5.2836245592834379E-06
  1.6610393110063593E-01  2.1130976748201544E-01  5.2349320248817687E-06
  1.6775877489855109E-01  2.1086378685761420E-01  5.1867020373741805E-06
  1.6943010541040091E-01  2.1044189461812982E-01  5.1389296305838600E-06
  1.7111808688838676E-01  2.1005211458329412E-01  5.0916094447423512E-06
  1.7282288522110528E-01  2.0962678796520381E-01  5.0447356904145310E-06
  1.7454466794985152E-01  2.0920527899070090E-01  4.9983022084844008E-06
  1.7628360428508466E-01  2.0875412492789189E-01  4.9523026432429176E-06
  1.7803986512305700E-01  2.0829815134136268E-01  4.9067306731245847E-06
  1.7981362306260892E-01  2.0790075554895862E-01  4.8615802167299827E-06
  1.8160505242213151E-01  2.0746859732377562E-01  4.8168455643455682E-06
  1.8341432925669809E-01  2.0704004824599850E-01  4.7725214304985776E-06
  1.8524163137536573E-01  2.0662066188935940E-01  4.7286029452009686E-06
  1.8708713835864996E-01  2.0619021749464819E-01  4.6850856103270762E-06
  1.8895103157617371E-01  2.0580364576006258E-01  4.6419652434836304E-06
  1.9083349420449081E-01  2.0542262352076784E-01  4.5992379442189829E-06
  1.9273471124508829E-01  2.0500028080444088E-01  4.5569001289802221E-06
  1.9465486954256803E-01  2.0455394083370934E-01  4.5149486009436284E-06
  1.9659415780300865E-01  2.0410002308372596E-01  4.4733805726644775E-06
  1.9855276661251087E-01  2.0364332160495996E-01  4.4321935952429022E-06
  2.0053088845592781E-01  2.0321726934643256E-01  4.3913854116982894E-06
  2.0252871773578185E-01  2.0277630054970167E-01  4.3509537877153055E-06
  2.0454645079136927E-01  2.0236234412378823E-01  4.3108963738867308E-06
  2.0658428591805605E-01  2.0196989011484640E-01  4.2712106224173006E-06
  2.0864242338676595E-01  2.0156272096153724E-01  4.2318937581029193E-06
  2.1072106546366171E-01  2.0118505616629570E-01  4.1929427883800018E-06
  2.1282041643002339E-01  2.0077927700156040E-01  4.1543545341063043E-06
  2.1494068260232457E-01  2.0039685885258751E-01  4.1161256664404597E-06
  2.1708207235250820E-01  1.9999635159534634E-01  4.0782527252633001E-06
  2.1924479612846426E-01  1.9955896756801736E-01  4.0407321268492522E-06
  2.2142906647471228E-01  1.9912599237482984E-01  4.0035602044649077E-06
  2.2363509805328952E-01  1.9866109390503814E-01  3.9667333090591289E-06
  2.2586310766484657E-01  1.9822596607424339E-01  3.9302479530463249E-06
  2.2811331426995421E-01  1.9778393538160416E-01  3.8941009533019275E-06
  2.3038593901062213E-01  1.9738380987709780E-01  3.8582895282835986E-06
  2.3268120523203145E-01  1.9698974446930206E-01  3.8228113327725365E-06
  2.3499933850448446E-01  1.9655816345827665E-01  3.7876644368944205E-06
  2.3734056664557329E-01  1.9615585729949278E-01  3.7528472683493831E-06
  2.3970511974256867E-01  1.9570160629909952E-01  3.7183585400059049E-06
  2.4209323017503129E-01  1.9528835537295905E-01  3.6841971754704047E-06
  2.4450513263765061E-01  1.9484502632255965E-01  3.6503622438549440E-06
  2.4694106416330905E-01  1.9442751553860324E-01  3.6168529160698153E-06
  2.4940126414637648E-01  1.9406214398223412E-01  3.5836684438517984E-06
  2.5188597436623728E-01  1.9371375940476246E-01  3.5508081521263696E-06
  2.5439543901105199E-01  1.9331855158626685E-01  3.5182714311430339E-06
  2.5692990470175431E-01  1.9293825677768492E-01  3.4860577207063428E-06
  2.5948962051628860E-01  1.9250860763853977E-01  3.4541664907488759E-06
  2.6207483801408848E-01  1.9207903360315873E-01  3.4225972215189229E-06
  2.6468581126079926E-01  1.9163472625683464E-01  3.3913493852299393E-06
  2.6732279685324545E-01  1.9120326340806276E-01  3.3604224325173793E-06
  2.6998605394464975E-01  1.9077667655749606E-01  3.3298157837565767E-06
  2.7267584427010089E-01  1.9035833224328549E-01  3.2995288237773344E-06
  2.7539243217227566E-01  1.8994849314819365E-01  3.2695608976973202E-06
  2.7813608462741785E-01  1.8953252733948603E-01  3.2399113435243399E-06
  2.8090707127157638E-01  1.8912656560214081E-01  3.2105796768540030E-06
  2.8370566442710282E-01  1.8874375497460447E-01  3.1815660144117117E-06
  2.8653213912941505E-01  1.8834706458949757E-01  3.1528716940288897E-06
  2.8938677315402683E-01  1.8793244117856339E-01  3.1244999304958428E-06
  2.9226984704384651E-01  1.8754347304765170E-01  3.0964563128387729E-06
  2.9518164413674647E-01  1.8713566897063280E-01  3.0687490121078513E-06
  2.9812245059341075E-01  1.8672458247894591E-01  3.0413886809404436E-06
  3.0109255542545643E-01  1.8629828551497177E-01  3.0143881190689236E-06
  3.0409225052383648E-01  1.8589577328764981E-01  2.9877618171673029E-06
  3.0712183068752641E-01  1.8547609518038166E-01  2.9615254806812991E-06
  3.1018159365249609E-01  1.8506597107130987E-01  2.9356956010592179E-06
  3.1327184012096937E-01  1.8460688475701187E-01  2.9102890979266499E-06
  3.1639287379097647E-01  1.8422802964267104E-01  2.8853229702660097E-06
  3.1954500138620057E-01  1.8384157713510574E-01  2.8608138861147035E-06
  3.2272853268612145E-01  1.8343875053638745E-01  2.8367776932964272E-06
  3.2594378055645806E-01  1.8304459086502131E-01  2.8132288981462043E-06
  3.2919106097991807E-01  1.8266776277321076E-01  2.7901802142145890E-06
  3.3247069308725014E-01  1.8227117594409165E-01  2.7676423102088346E-06
  3.3578299918860699E-01  1.8186908288777909E-01  2.7456237833772625E-06
  3.3912830480522077E-01  1.8140379843245161E-01  2.7241313280149027E-06
  3.4250693870139498E-01  1.8100794944755125E-01  2.7031700314492710E-06
  3.4591923291681309E-01  1.8059735614478964E-01  2.6827437198515689E-06
  3.4936552279917055E-01  1.8016089137230742E-01  2.6628552890943390E-06
  3.5284614703713207E-01  1.7979501457591729E-01  2.6435069987435835E-06
  3.5636144769361633E-01  1.7937425913358204E-01  2.6247008826494410E-06
  3.5991177023941168E-01  1.7903281509173652E-01  2.6064395638018689E-06
  3.6349746358712948E-01  1.7865349550158177E-01  2.5887276174252448E-06
  3.6711888012549304E-01  1.7823807671431000E-01  2.5715733593399602E-06
  3.7077637575396888E-01  1.7787021954860785E-01  2.5549907055815806E-06
  3.7447030991774333E-01  1.7745435632154305E-01  2.5390006372877005E-06
  3.7820104564304829E-01  1.7706215190414201E-01  2.5236319486131389E-06
  3.8196894957283695E-01  1.7667668245635182E-01  2.5089212061108926E-06
  3.8577439200281638E-01  1.7627605707843799E-01  2.4949120713220524E-06
  3.8961774691783962E-01  1.7587903095254950E-01  2.4816542603400202E-06
  3.9349939202865925E-01  1.7546816604603965E-01  2.4692024122688536E-06
  3.9741970880904565E-01  1.7510955772748321E-01  2.4576150710193891E-06
  4.0137908253327981E-01  1.7474709951340422E-01  2.4469538142121051E-06
  4.0537790231401488E-01  1.7437310618148663E-01  2.4372823283440985E-06
  4.0941656114051650E-01  1.7400153885772934E-01  2.4286652706068874E-06
  4.1349545591728498E-01  1.7364876694193140E-01  2.4211668652718855E-06
  4.1761498750306209E-01  1.7328166403914258E-01  2.4148493291691129E-06
  4.2177556075022477E-01  1.7294443891739297E-01  2.4097714834366986E-06
  4.2597758454457302E-01  1.7259419734368206E-01  2.4059879186503239E-06
  4.3022147184551462E-01  1.7224775587104366E-01  2.4035488354518126E-06
  4.3450763972664769E-01  1.7188005594005346E-01  2.4025005486309199E-06
  4.3883650941674979E-01  1.7152527051332908E-01  2.4028864844773352E-06
  4.4320850634117553E-01  1.7114171543103729E-01  2.4047484405755356E-06
  4.4762406016366491E-01  1.7076813447229314E-01  2.4081279057271000E-06
  4.5208360482856907E-01  1.7039030889204379E-01  2.4130672560807282E-06
  4.5658757860349664E-01  1.7002050722063913E-01  2.4196106650851994E-06
  4.6113642412238631E-01  1.6964160364076777E-01  2.4278045240167032E-06
  4.6573058842900572E-01  1.6933799785849088E-01  2.4376972953996259E-06
  4.7037052302088556E-01  1.6902040130830340E-01  2.4493389090620829E-06
  4.7505668389369227E-01  1.6872748964190246E-01  2.4627799160937051E-06
  4.7978953158604076E-01  1.6841888450882000E-01  2.4780705932397891E-06
  4.8456953122475305E-01  1.6812585035675909E-01  2.4952603243878370E-06
  4.8939715257057215E-01  1.6777371480564079E-01  2.5143974322536042E-06
  4.9427287006432680E-01  1.6746928804701278E-01  2.5355294656745992E-06
  4.9919716287355642E-01  1.6710981798227367E-01  2.5587038307124029E-06
  5.0417051493960474E-01  1.6680698333660707E-01  2.5839686052266661E-06
  5.0919341502517856E-01  1.6647340203561253E-01  2.6113733701621025E-06
  5.1426635676237986E-01  1.6613291647906853E-01  2.6409698429608812E-06
  5.1938983870122080E-01  1.6581923044690236E-01  2.6728119525228017E-06
  5.2456436435861886E-01  1.6550366172970954E-01  2.7069549985973836E-06
  5.2979044226787730E-01  1.6520184973741545E-01  2.7434537362720581E-06
  5.3506858602866880E-01  1.6487314053026622E-01  2.7823595054397162E-06
  5.4039931435750266E-01  1.6456306765300072E-01  2.8237166664319070E-06
  5.4578315113870535E-01  1.6426660410061053E-01  2.8675589447375086E-06
  5.5122062547591011E-01  1.6394976716098897E-01  2.9139063181111650E-06
  5.5671227174404692E-01  1.6362066134040998E-01  2.9627628372950779E-06
  5.6225862964186624E-01  1.6332003869492340E-01  3.0141154650973353E-06
  5.6786024424497539E-01  1.6300687218093832E-01  3.0679337458079180E-06
  5.7351766605940546E-01  1.6266124239484930E-01  3.1241699380149003E-06
  5.7923145107571627E-01  1.6234128721924254E-01  3.1827593040138757E-06
  5.8500216082363521E-01  1.6200678733637217E-01  3.2436205022066496E-06
  5.9083036242724074E-01  1.6170522498799642E-01  3.3066560183573907E-06
  5.9671662866070063E-01  1.6138558731852776E-01  3.3717528288951771E-06
  6.0266153800456057E-01  1.6107567850259724E-01  3.4387836576066136E-06
  6.0866567470259325E-01  1.6076771412283256E-01  3.5076086402426670E-06
  6.1472962881921867E-01  1.6045496103541387E-01  3.5780770588845193E-06
  6.2085399629749283E-01  1.6009484834322310E-01  3.6500289581624414E-06
  6.2703937901767193E-01  1.5980078184284643E-01  3.7232962331896530E-06
  6.3328638485636723E-01  1.5943338074725910E-01  3.7977029109717774E-06
  6.3959562774628276E-01  1.5908084829584609E-01  3.8730645792175297E-06
  6.4596772773654820E-01  1.5874112396055537E-01  3.9491871382569313E-06
  6.5240331105366167E-01  1.5838975409092174E-01  4.0258652417769108E-06
  6.5890301016302477E-01  1.5804649517736022E-01  4.1028808033832139E-06
  6.6546746383110289E-01  1.5770699619031175E-01  4.1800021746084689E-06
  6.7209731718820409E-01  1.5737752782191136E-01  4.2569845128849654E-06
  6.7879322179187307E-01  1.5703857921531400E-01  4.3335716488460876E-06
  6.8555583569092948E-01  1.5665365750804811E-01  4.4094996444308449E-06
  6.9238582349013689E-01  1.5634343146061525E-01  4.4845020445908557E-06
