 #p(MeV) \t \delta f_\\nu \t \delta f_\\nubar
  9.0661154312044523E-02  2.6826317457919163E-01  1.6351078047168229E-05
  9.1564384283370229E-02  2.6776658345210713E-01  1.6214446268588185E-05
  9.2476612864820493E-02  2.6734027460976184E-01  1.6078782592821379E-05
  9.3397929706857369E-02  2.6702704713650954E-01  1.5944084815525156E-05
  9.4328425353103457E-02  2.6668534169566599E-01  1.5810351212306304E-05
  9.5268191249240561E-02  2.6614843761581475E-01  1.5677580420544736E-05
  9.6217319751996377E-02  2.6561115684375136E-01  1.5545771296420193E-05
  9.7175904138220998E-02  2.6506205812836198E-01  1.5414922923387991E-05
  9.8144038614054102E-02  2.6461051503892519E-01  1.5285034698494990E-05
  9.9121818324182737E-02  2.6416857835899110E-01  1.5156106002798236E-05
  1.0010933936119218E-01  2.6372881116077534E-01  1.5028135525783195E-05
  1.0110669877500932E-01  2.6324609712379593E-01  1.4901120674984552E-05
  1.0211399458244039E-01  2.6279299724519006E-01  1.4775057311581536E-05
  1.0313132577680395E-01  2.6230143870841022E-01  1.4649939793766062E-05
  1.0415879233765916E-01  2.6183305026437653E-01  1.4525761196524284E-05
  1.0519649524063186E-01  2.6142441864947935E-01  1.4402513588254897E-05
  1.0624453646733770E-01  2.6097614051328266E-01  1.4280188292102625E-05
  1.0730301901540462E-01  2.6057083361207189E-01  1.4158776090061244E-05
  1.0837204690859537E-01  2.6012460458158559E-01  1.4038267458447618E-05
  1.0945172520703007E-01  2.5968756628546469E-01  1.3918652726719940E-05
  1.1054216001751166E-01  2.5925021367185264E-01  1.3799921876799281E-05
  1.1164345850395321E-01  2.5876792796842185E-01  1.3682064444835379E-05
  1.1275572889790987E-01  2.5825039656540294E-01  1.3565069882999293E-05
  1.1387908050921557E-01  2.5773201123553446E-01  1.3448928141118844E-05
  1.1501362373672515E-01  2.5725218959485047E-01  1.3333630125244903E-05
  1.1615947007916452E-01  2.5683935178504969E-01  1.3219167891443440E-05
  1.1731673214608788E-01  2.5642314436403252E-01  1.3105534614626092E-05
  1.1848552366894470E-01  2.5601885608638503E-01  1.2992724435493529E-05
  1.1966595951225709E-01  2.5551519932302613E-01  1.2880732268541768E-05
  1.2085815568490779E-01  2.5498542975211652E-01  1.2769553626910252E-05
  1.2206222935154161E-01  2.5451114873623565E-01  1.2659184434965086E-05
  1.2327829884407947E-01  2.5400739584877990E-01  1.2549620807321436E-05
  1.2450648367334786E-01  2.5355834062470950E-01  1.2440859125180320E-05
  1.2574690454082413E-01  2.5312742593774334E-01  1.2332896321436270E-05
  1.2699968335049794E-01  2.5268952212139301E-01  1.2225729939823602E-05
  1.2826494322085244E-01  2.5222535480342317E-01  1.2119357891542088E-05
  1.2954280849696301E-01  2.5184626551924671E-01  1.2013778105396728E-05
  1.3083340476271796E-01  2.5141823664027246E-01  1.1908988253464179E-05
  1.3213685885316048E-01  2.5098446045345202E-01  1.1804985617279308E-05
  1.3345329886695317E-01  2.5051783106285641E-01  1.1701767066814332E-05
  1.3478285417896732E-01  2.5002460353159134E-01  1.1599329103678254E-05
  1.3612565545299757E-01  2.4957733423544809E-01  1.1497667926931563E-05
  1.3748183465460259E-01  2.4913077413601650E-01  1.1396779501562548E-05
  1.3885152506407475E-01  2.4862146400618693E-01  1.1296659640084576E-05
  1.4023486128953783E-01  2.4819075031592566E-01  1.1197304046945290E-05
  1.4163197928017637E-01  2.4774344848346705E-01  1.1098708376721847E-05
  1.4304301633959579E-01  2.4727622866177815E-01  1.1000868447623405E-05
  1.4446811113931626E-01  2.4684962997312079E-01  1.0903780560325248E-05
  1.4590740373240105E-01  2.4640452832357435E-01  1.0807441754430018E-05
  1.4736103556722005E-01  2.4594117839432023E-01  1.0711849903555429E-05
  1.4882914950135093E-01  2.4546029361834693E-01  1.0617003658362028E-05
  1.5031188981561885E-01  2.4501726241609828E-01  1.0522902302892142E-05
  1.5180940222827552E-01  2.4459912197948736E-01  1.0429545586271017E-05
  1.5332183390932025E-01  2.4419939578114411E-01  1.0336933567762400E-05
  1.5484933349496269E-01  2.4374482253779992E-01  1.0245066490845952E-05
  1.5639205110223098E-01  2.4332376363079977E-01  1.0153944698536465E-05
  1.5795013834372412E-01  2.4284400448311649E-01  1.0063568542131707E-05
  1.5952374834251204E-01  2.4234055377953034E-01  9.9739381030400962E-06
  1.6111303574718425E-01  2.4185857864304319E-01  9.8850526853516015E-06
  1.6271815674704773E-01  2.4138702240205503E-01  9.7969102805091144E-06
  1.6433926908747684E-01  2.4105551978762790E-01  9.7095072438714293E-06
  1.6597653208541607E-01  2.4061963840937578E-01  9.6228382733338299E-06
  1.6763010664503677E-01  2.4016534139112242E-01  9.5368966224802447E-06
  1.6930015527355075E-01  2.3963758598853999E-01  9.4516744216747887E-06
  1.7098684209718018E-01  2.3919928773612764E-01  9.3671630057059404E-06
  1.7269033287728808E-01  2.3866439330156300E-01  9.2833531944134666E-06
  1.7441079502666820E-01  2.3825852047427057E-01  9.2002355121829588E-06
  1.7614839762599771E-01  2.3781422645128106E-01  9.1178003538797073E-06
  1.7790331144045446E-01  2.3734030444430598E-01  9.0360381448777013E-06
  1.7967570893649826E-01  2.3692422981389022E-01  8.9549396613504838E-06
  1.8146576429882086E-01  2.3651536553290653E-01  8.8744965110882152E-06
  1.8327365344746416E-01  2.3614366121388664E-01  8.7947015506140758E-06
  1.8509955405510856E-01  2.3568731619693470E-01  8.7155490593035300E-06
  1.8694364556453452E-01  2.3524418998740662E-01  8.6370346504589671E-06
  1.8880610920625693E-01  2.3477696496075443E-01  8.5591550154037392E-06
  1.9068712801633655E-01  2.3432876140281458E-01  8.4819076200707672E-06
  1.9258688685436734E-01  2.3389327364139309E-01  8.4052904321732706E-06
  1.9450557242164404E-01  2.3342528247968466E-01  8.3293017095386200E-06
  1.9644337327951109E-01  2.3301983567318574E-01  8.2539398492503515E-06
  1.9840047986789261E-01  2.3257712364315164E-01  8.1792032782630315E-06
  2.0037708452400901E-01  2.3213747573943330E-01  8.1050903428629254E-06
  2.0237338150127909E-01  2.3166196008075476E-01  8.0315990684153374E-06
  2.0438956698840999E-01  2.3121328256746332E-01  7.9587268013669769E-06
  2.0642583912867868E-01  2.3075310606637967E-01  7.8864699839238443E-06
  2.0848239803940394E-01  2.3031796677997113E-01  7.8148242108980333E-06
  2.1055944583161396E-01  2.2989339311839960E-01  7.7437845071874587E-06
  2.1265718662990846E-01  2.2948794459056163E-01  7.6733456704364352E-06
  2.1477582659251931E-01  2.2910353777924194E-01  7.6035025489988039E-06
  2.1691557393157171E-01  2.2866980952701024E-01  7.5342502093870400E-06
  2.1907663893354562E-01  2.2822642614640976E-01  7.4655840069494841E-06
  2.2125923397994224E-01  2.2776098361401712E-01  7.3974995932224906E-06
  2.2346357356815663E-01  2.2725883487189125E-01  7.3299928955284523E-06
  2.2568987433255666E-01  2.2679253984704015E-01  7.2630601051097107E-06
  2.2793835506577426E-01  2.2630356514704472E-01  7.1966977561509438E-06
  2.3020923674020632E-01  2.2588523760768595E-01  7.1309029031801527E-06
  2.3250274252973219E-01  2.2547252198471945E-01  7.0656731783925793E-06
  2.3481909783164542E-01  2.2503237158306055E-01  7.0010065752161935E-06
  2.3715853028880549E-01  2.2468488893891794E-01  6.9369010356319205E-06
  2.3952126981200997E-01  2.2425013900660107E-01  6.8733540285464292E-06
  2.4190754860258848E-01  2.2382671556146069E-01  6.8103622712132593E-06
  2.4431760117522325E-01  2.2339944353012725E-01  6.7479216353208883E-06
  2.4675166438099633E-01  2.2295976932435743E-01  6.6860271936544828E-06
  2.4920997743066589E-01  2.2249770936474250E-01  6.6246733436679497E-06
  2.5169278191817590E-01  2.2203844086892685E-01  6.5638539533969011E-06
  2.5420032184439800E-01  2.2163787319759998E-01  6.5035624915300710E-06
  2.5673284364111199E-01  2.2120432404501775E-01  6.4437920920183354E-06
  2.5929059619522349E-01  2.2074995936374067E-01  6.3845355358741544E-06
  2.6187383087322397E-01  2.2028741991537887E-01  6.3257853090869060E-06
  2.6448280154589443E-01  2.1984628132364620E-01  6.2675338921375067E-06
  2.6711776461325420E-01  2.1944459555639420E-01  6.2097742340956086E-06
  2.6977897902975928E-01  2.1901708405843692E-01  6.1525002296191725E-06
  2.7246670632975195E-01  2.1863843575969868E-01  6.0957070312271079E-06
  2.7518121065316242E-01  2.1823917507942039E-01  6.0393911330719911E-06
  2.7792275877146827E-01  2.1781721432976059E-01  5.9835502730605681E-06
  2.8069162011391152E-01  2.1732570911588101E-01  5.9281832334479245E-06
  2.8348806679397737E-01  2.1680337444873146E-01  5.8732896110032694E-06
  2.8631237363613599E-01  2.1631250153182774E-01  5.8188696037567234E-06
  2.8916481820285150E-01  2.1586762039198817E-01  5.7649238532055085E-06
  2.9204568082186044E-01  2.1547807967963992E-01  5.7114533825940843E-06
  2.9495524461372008E-01  2.1512345495411239E-01  5.6584595591142500E-06
  2.9789379551963341E-01  2.1475491983316158E-01  5.6059439349591347E-06
  3.0086162232955033E-01  2.1434866293762558E-01  5.5539079288351883E-06
  3.0385901671054849E-01  2.1393345631974492E-01  5.5023524393744013E-06
  3.0688627323549716E-01  2.1345167301653084E-01  5.4512775226333682E-06
  3.0994368941200739E-01  2.1299091288128214E-01  5.4006822288805409E-06
  3.1303156571166973E-01  2.1258283699667899E-01  5.3505645992536805E-06
  3.1615020559958290E-01  2.1216263456518980E-01  5.3009217731245236E-06
  3.1929991556417769E-01  2.1173127244869161E-01  5.2517501488551766E-06
  3.2248100514733802E-01  2.1130974906672986E-01  5.2030455523112161E-06
  3.2569378697482049E-01  2.1086376840687510E-01  5.1548033803027424E-06
  3.2893857678697852E-01  2.1044187613338367E-01  5.1070186654846280E-06
  3.3221569346979307E-01  2.1005209606650116E-01  5.0596860455594739E-06
  3.3552545908621001E-01  2.0962676941399672E-01  5.0127997304540022E-06
  3.3886819890779202E-01  2.0920526040523021E-01  4.9663535628721097E-06
  3.4224424144668569E-01  2.0875410630616650E-01  4.9203411893455712E-06
  3.4565391848790572E-01  2.0829813268298014E-01  4.8747562904142397E-06
  3.4909756512194123E-01  2.0790073685758018E-01  4.8295927863565917E-06
  3.5257551977768797E-01  2.0746857859708293E-01  4.7848449686007200E-06
  3.5608812425570802E-01  2.0704002948413167E-01  4.7405075522560132E-06
  3.5963572376181957E-01  2.0662064309281497E-01  4.6965756673601127E-06
  3.6321866694102317E-01  2.0619019866262459E-01  4.6530448153083808E-06
  3.6683730591176611E-01  2.0580362689528478E-01  4.6099108129774052E-06
  3.7049199630054569E-01  2.0542260462350134E-01  4.5671697591620461E-06
  3.7418309727685956E-01  2.0500026187193748E-01  4.5248180690505667E-06
  3.7791097158850429E-01  2.0455392186432916E-01  4.4828525423118740E-06
  3.8167598559722404E-01  2.0410000407687884E-01  4.4412703845565187E-06
  3.8547850931471539E-01  2.0364330256035862E-01  4.4000691387940850E-06
  3.8931891643899058E-01  2.0321725026593743E-01  4.3592465397333951E-06
  3.9319758439110414E-01  2.0277628143223450E-01  4.3188003446652542E-06
  3.9711489435224301E-01  2.0236232497096748E-01  4.2787281964257878E-06
  4.0107123130118827E-01  2.0196987092793320E-01  4.2390275406406118E-06
  4.0506698405215025E-01  2.0156270173945393E-01  4.1996955966923109E-06
  4.0910254529297824E-01  2.0118503691081499E-01  4.1607293672875712E-06
  4.1317831162375329E-01  2.0077925771073329E-01  4.1221256696651552E-06
  4.1729468359576477E-01  2.0039683952778803E-01  4.0838811737270840E-06
  4.2145206575087490E-01  1.9999633223527052E-01  4.0459924203323214E-06
  4.2565086666127483E-01  1.9955894817014533E-01  4.0084558281343734E-06
  4.2989149896963863E-01  1.9912597293931206E-01  3.9712677348364226E-06
  4.3417437942967624E-01  1.9866107442967607E-01  3.9344244971569563E-06
  4.3849992894708983E-01  1.9822594656083561E-01  3.8979226335491957E-06
  4.4286857262093909E-01  1.9778391582957824E-01  3.8617589673528815E-06
  4.4728073978541927E-01  1.9738379028904970E-01  3.8259307231851180E-06
  4.5173686405205304E-01  1.9698972484550881E-01  3.7904355607279909E-06
  4.5623738335230501E-01  1.9655814379618741E-01  3.7552715533408544E-06
  4.6078273998062064E-01  1.9615583760089353E-01  3.7204371308807442E-06
  4.6537338063789280E-01  1.9570158656049957E-01  3.6859310073951520E-06
  4.7000975647536053E-01  1.9528833559690700E-01  3.6517521054560151E-06
  4.7469232313894894E-01  1.9484500650697975E-01  3.6178994905729426E-06
  4.7942154081404714E-01  1.9442749568505316E-01  3.5843723291101628E-06
  4.8419787427073324E-01  1.9406212409398585E-01  3.5511698678430765E-06
  4.8902179290945058E-01  1.9371373948279821E-01  3.5182914258875177E-06
  4.9389377080713959E-01  1.9331853162740467E-01  3.4857363874238260E-06
  4.9881428676382661E-01  1.9293823678276242E-01  3.4535041856324057E-06
  5.0378382434967961E-01  1.9250858760419437E-01  3.4215942834141531E-06
  5.0880287195253193E-01  1.9207901352924750E-01  3.3900061543429198E-06
  5.1387192282587923E-01  1.9163470614224237E-01  3.3587392648203961E-06
  5.1899147513735278E-01  1.9120324325347310E-01  3.3277930601970791E-06
  5.2416203201768030E-01  1.9077665636306834E-01  3.2971669555511419E-06
  5.2938410161013039E-01  1.9035831200939687E-01  3.2668603308246424E-06
  5.3465819712045071E-01  1.8994847287523675E-01  3.2368725272682010E-06
  5.3998483686730392E-01  1.8953250702689178E-01  3.2072028792657121E-06
  5.4536454433320791E-01  1.8912654525039485E-01  3.1778508979896121E-06
  5.5079784821597899E-01  1.8874373458505375E-01  3.1488166954079763E-06
  5.5628528248069220E-01  1.8834704416105480E-01  3.1201016046610036E-06
  5.6182738641215701E-01  1.8793242070986985E-01  3.0917088362080400E-06
  5.6742470466791695E-01  1.8754345254021146E-01  3.0636439753862036E-06
  5.7307778733177384E-01  1.8713564842302105E-01  3.0359151898103860E-06
  5.7878718996785183E-01  1.8672456189075751E-01  3.0085331286256566E-06
  5.8455347367519372E-01  1.8629826488501186E-01  2.9815105882692324E-06
  5.9037720514290393E-01  1.8589575261729249E-01  2.9548620570144861E-06
  5.9625895670584106E-01  1.8547607446829847E-01  2.9286032389765717E-06
  6.0219930640086561E-01  1.8506595031793491E-01  2.9027506248192007E-06
  6.0819883802364516E-01  1.8460686395890996E-01  2.8773211337965674E-06
  6.1425814118602962E-01  1.8422800880494930E-01  2.8523317656111378E-06
  6.2037781137399572E-01  1.8384155625706713E-01  2.8277991903015845E-06
  6.2655845000616928E-01  1.8343872961675287E-01  2.8037392580899090E-06
  6.3280066449292816E-01  1.8304456990417114E-01  2.7801664775456801E-06
  6.3910506829610014E-01  1.8266774177210238E-01  2.7570935639294250E-06
  6.4547228098924914E-01  1.8227115490122128E-01  2.7345311873477121E-06
  6.5190292831856533E-01  1.8186906180258805E-01  2.7124879464240988E-06
  6.5839764226436015E-01  1.8140377730054225E-01  2.6909705365812730E-06
  6.6495706110317754E-01  1.8100792827334625E-01  2.6699840452222410E-06
  6.7158182947051848E-01  1.8059733492711189E-01  2.6495322968854883E-06
  6.7827259842419485E-01  1.8016087010923268E-01  2.6296181844619054E-06
  6.8503002550831360E-01  1.7979499327195198E-01  2.6102439640450184E-06
  6.9185477481789692E-01  1.7937423778486086E-01  2.5914116658117770E-06
  6.9874751706414562E-01  1.7903279370335209E-01  2.5731239081386397E-06
  7.0570892964035714E-01  1.7865347407079499E-01  2.5553852607189391E-06
  7.1273969668849602E-01  1.7823805523849043E-01  2.5382040337178933E-06
  7.1984050916642772E-01  1.7787019803072138E-01  2.5215941374984428E-06
  7.2701206491582382E-01  1.7745433475814876E-01  2.5055765473591936E-06
  7.3425506873074575E-01  1.7706213029659745E-01  2.4901800512956429E-06
  7.4157023242690590E-01  1.7667666080487676E-01  2.4754412094985678E-06
  7.4895827491162337E-01  1.7627603538177650E-01  2.4614036775442758E-06
  7.5641992225447741E-01  1.7587900921070132E-01  2.4481171666447633E-06
  7.6395590775866129E-01  1.7546814425782742E-01  2.4356363118924938E-06
  7.7156697203304647E-01  1.7510953589618022E-01  2.4240196531029251E-06
  7.7925386306497169E-01  1.7474707763850278E-01  2.4133287629725223E-06
  7.8701733629374915E-01  1.7437308426195505E-01  2.4036273228692934E-06
  7.9485815468490661E-01  1.7400151689347429E-01  2.3949799858375098E-06
  8.0277708880516896E-01  1.7364874493396493E-01  2.3874509723172393E-06
  8.1077491689818826E-01  1.7328164198623236E-01  2.3811024950730898E-06
  8.1885242496102428E-01  1.7294441682129874E-01  2.3759933710848252E-06
  8.2701040682139015E-01  1.7259417520325437E-01  2.3721781868635372E-06
  8.3524966421566882E-01  1.7224773368626922E-01  2.3697071388175302E-06
  8.4357100686770148E-01  1.7188003370921212E-01  2.3686265372044154E-06
  8.5197525256836593E-01  1.7152524823701887E-01  2.3689798037729940E-06
  8.6046322725594693E-01  1.7114169310701458E-01  2.3708087319683808E-06
  8.6903576509730507E-01  1.7076811210094861E-01  2.3741548071400325E-06
  8.7769370856985551E-01  1.7039028647279628E-01  2.3790604026188426E-06
  8.8643790854436377E-01  1.7002048475374296E-01  2.3855696891503972E-06
  8.9526922436856771E-01  1.6964158112530323E-01  2.3937290542062108E-06
  9.0418852395162830E-01  1.6933797529931477E-01  2.4035869556761864E-06
  9.1319668384942609E-01  1.6902037870416067E-01  2.4151933174844952E-06
  9.2229458935070685E-01  1.6872746699418284E-01  2.4285986808210669E-06
  9.3148313456408349E-01  1.6841886181613372E-01  2.4438533087641241E-06
  9.4076322250590327E-01  1.6812582761985340E-01  2.4610065699766136E-06
  9.5013576518899767E-01  1.6777369202011103E-01  2.4801067713147230E-06
  9.5960168371230969E-01  1.6746926521579428E-01  2.5012014440453231E-06
  9.6916190835141280E-01  1.6710979510120433E-01  2.5243379739967089E-06
  9.7881737864994034E-01  1.6680696040921533E-01  2.5495644172508743E-06
  9.8856904351191843E-01  1.6647337905937837E-01  2.5769303328910437E-06
  9.9841786129501708E-01  1.6613289345310039E-01  2.6064874168780662E-06
  1.0083647999047400E+00  1.6581920737263015E-01  2.6382895775835494E-06
  1.0184108368895444E+00  1.6550363860656403E-01  2.6723920951462079E-06
  1.0285569595369062E+00  1.6520182656589946E-01  2.7088497043851235E-06
  1.0388041649703583E+00  1.6487311730803869E-01  2.7477137215183927E-06
  1.0491534602474715E+00  1.6456304438086794E-01  2.7890284793421013E-06
  1.0596058624588289E+00  1.6426658077901088E-01  2.8328276723974861E-06
  1.0701623988279907E+00  1.6394974378796540E-01  2.8791312445278239E-06
  1.0808241068124302E+00  1.6362063791454248E-01  2.9279432124667901E-06
  1.0915920342055030E+00  1.6332001521762229E-01  2.9792505079178357E-06
  1.1024672392394177E+00  1.6300684865072146E-01  3.0330226458426350E-06
  1.1134507906892299E+00  1.6266121880880910E-01  3.0892118544878444E-06
  1.1245437679778851E+00  1.6234126357852977E-01  3.1477533642753725E-06
  1.1357472612822967E+00  1.6200676363928704E-01  3.2085658004375451E-06
  1.1470623716404817E+00  1.6170520123616053E-01  3.2715516142067169E-06
  1.1584902110597723E+00  1.6138556350994118E-01  3.3365977462074333E-06
  1.1700319026260981E+00  1.6107565463718992E-01  3.4035768754431409E-06
  1.1816885806143542E+00  1.6076769019994136E-01  3.4723490745308526E-06
  1.1934613905998803E+00  1.6045493705384242E-01  3.5427635466391430E-06
  1.2053514895710418E+00  1.6009482429868224E-01  3.6146602476495157E-06
  1.2173600460429281E+00  1.5980075773904295E-01  3.6878709766182896E-06
  1.2294882401722003E+00  1.5943335657790242E-01  3.7622196573231704E-06
  1.2417372638730659E+00  1.5908082406084764E-01  3.8375217686472758E-06
  1.2541083209344137E+00  1.5874109965960548E-01  3.9135831001416987E-06
  1.2666026271381292E+00  1.5838972972188173E-01  3.9901981942210091E-06
  1.2792214103785617E+00  1.5804647073942571E-01  4.0671488519582448E-06
  1.2919659107832053E+00  1.5770697168228642E-01  4.1442033107952517E-06
  1.3048373808345801E+00  1.5737750324296904E-01  4.2211166120740729E-06
  1.3178370854933075E+00  1.5703855456313479E-01  4.2976324656275706E-06
  1.3309663023224372E+00  1.5665363277756683E-01  4.3734868001428836E-06
  1.3442263216129982E+00  1.5634340665539950E-01  4.4484130086724504E-06
