 #p(MeV) \t \delta f_\\nu \t \delta f_\\nubar
  3.4543002002503487E-02  2.6826319267099663E-01  1.6390091642242417E-05
  3.4887143602563397E-02  2.6776660158440529E-01  1.6253463678887832E-05
  3.5234713782481025E-02  2.6734029277708854E-01  1.6117803854622710E-05
  3.5585746700172345E-02  2.6702706533005471E-01  1.5983109960882646E-05
  3.5940276853858345E-02  2.6668535991767084E-01  1.5849380268726650E-05
  3.6298339085455544E-02  2.6614845588154412E-01  1.5716613411111263E-05
  3.6659968584000009E-02  2.6561117515325217E-01  1.5584808240424826E-05
  3.7025200889105651E-02  2.6506207648257368E-01  1.5453963837368329E-05
  3.7394071894456975E-02  2.6461053343023994E-01  1.5324079597199370E-05
  3.7766617851336476E-02  2.6416859678667198E-01  1.5195154900570643E-05
  3.8142875372187385E-02  2.6372882962466737E-01  1.5067188440207357E-05
  3.8522881434211724E-02  2.6324611562727451E-01  1.4940177629290533E-05
  3.8906673383004312E-02  2.6279301578596143E-01  1.4814118334351950E-05
  3.9294288936223019E-02  2.6230145728950433E-01  1.4689004918394184E-05
  3.9685766187295385E-02  2.6183306888400742E-01  1.4564830461240142E-05
  4.0081143609162463E-02  2.6142443730300235E-01  1.4441587036669730E-05
  4.0480460058059657E-02  2.6097615920382861E-01  1.4319265973653578E-05
  4.0883754777335399E-02  2.6057085233631372E-01  1.4197858060078338E-05
  4.1291067401307960E-02  2.6012462334276054E-01  1.4077353778144686E-05
  4.1702437959160371E-02  2.5968758508289341E-01  1.3957743463046818E-05
  4.2117906878874539E-02  2.5925023250560270E-01  1.3839017101881191E-05
  4.2537514991204201E-02  2.5876794684205312E-01  1.3721164235279540E-05
  4.2961303533687663E-02  2.5825041548172117E-01  1.3604174317118676E-05
  4.3389314154700605E-02  2.5773203019465246E-01  1.3488037295565186E-05
  4.3821588917548886E-02  2.5725220859379549E-01  1.3372744074479355E-05
  4.4258170304602613E-02  2.5683937081862140E-01  1.3258286707884667E-05
  4.4699101221470992E-02  2.5642316343253624E-01  1.3144658368300473E-05
  4.5144425001218944E-02  2.5601887518892824E-01  1.3031853193178968E-05
  4.5594185408625858E-02  2.5551521846743092E-01  1.2919866092784035E-05
  4.6048426644486447E-02  2.5498544894046582E-01  1.2808692575342489E-05
  4.6507193349954790E-02  2.5451116796421913E-01  1.2698328559657426E-05
  4.6970530610931378E-02  2.5400741511873859E-01  1.2588770154068991E-05
  4.7438483962494060E-02  2.5355835993238685E-01  1.2480013733364068E-05
  4.7911099393373117E-02  2.5312744528174264E-01  1.2372056224286860E-05
  4.8388423350470666E-02  2.5268954150228534E-01  1.2264895165701791E-05
  4.8870502743425581E-02  2.5222537422329006E-01  1.2158528466692845E-05
  4.9357384949223315E-02  2.5184628497143868E-01  1.2052954055016923E-05
  4.9849117816852098E-02  2.5141825612864743E-01  1.1948169601621526E-05
  5.0345749672005363E-02  2.5098447997848128E-01  1.1844172387196508E-05
  5.0847329321830934E-02  2.5051785062713838E-01  1.1740959281717818E-05
  5.1353906059727623E-02  2.5002462313723495E-01  1.1638526788085161E-05
  5.1865529670189738E-02  2.4957735387887112E-01  1.1536871107887625E-05
  5.2382250433699491E-02  2.4913079381718833E-01  1.1435988209823691E-05
  5.2904119131668641E-02  2.4862148373006052E-01  1.1335873911249162E-05
  5.3431187051428831E-02  2.4819077007636253E-01  1.1236523922024506E-05
  5.3963505991272163E-02  2.4774346828180244E-01  1.1137933902033830E-05
  5.4501128265541578E-02  2.4727624849961197E-01  1.1040099674425383E-05
  5.5044106709772146E-02  2.4684964984730087E-01  1.0943017543522258E-05
  5.5592494685883669E-02  2.4640454823559299E-01  1.0846684551643160E-05
  5.6146346087424727E-02  2.4594119834565231E-01  1.0751098575591580E-05
  5.6705715344869186E-02  2.4546031361041357E-01  1.0656258269864223E-05
  5.7270657430965537E-02  2.4501728244597076E-01  1.0562162922287677E-05
  5.7841227866139239E-02  2.4459914204525601E-01  1.0468812284937421E-05
  5.8417482723949234E-02  2.4419941588140884E-01  1.0376206418943040E-05
  5.8999478636598456E-02  2.4374484267692073E-01  1.0284345568584466E-05
  5.9587272800499656E-02  2.4332378380619007E-01  1.0193230076772012E-05
  6.0180922981896284E-02  2.4284402469944141E-01  1.0102860294243843E-05
  6.0780487522539561E-02  2.4234057403870335E-01  1.0013236302064239E-05
  6.1386025345422236E-02  2.4185859894342512E-01  9.9243574041191516E-06
  6.1997595960569141E-02  2.4138704274287598E-01  9.8362215916460168E-06
  6.2615259470885656E-02  2.4105554015791369E-01  9.7488252200314996E-06
  6.3239076578064560E-02  2.4061965881738967E-01  9.6621629865710389E-06
  6.3869108588551313E-02  2.4016536183836218E-01  9.5762281427352057E-06
  6.4505417419569278E-02  2.3963760648083784E-01  9.4910128158680545E-06
  6.5148065605204475E-02  2.3919930826648469E-01  9.4065083378136096E-06
  6.5797116302551445E-02  2.3866441387763374E-01  9.3227055260132150E-06
  6.6452633297919908E-02  2.3825854108593450E-01  9.2395949029303056E-06
  6.7114681013103486E-02  2.3781424710160778E-01  9.1571668617945035E-06
  6.7783324511710985E-02  2.3734032513567305E-01  9.0754118264949492E-06
  6.8458629505560378E-02  2.3692425054177921E-01  8.9943205716773009E-06
  6.9140662361136834E-02  2.3651538629678867E-01  8.9138847035485381E-06
  6.9829490106115083E-02  2.3614368201087044E-01  8.8340970776323119E-06
  7.0525180435946369E-02  2.3568733703373537E-01  8.7549519732860534E-06
  7.1227801720511658E-02  2.3524421086302297E-01  8.6764450050948018E-06
  7.1937423010840412E-02  2.3477698587713183E-01  8.5985728684736341E-06
  7.2654114045897042E-02  2.3432878235849972E-01  8.5213330357152674E-06
  7.3377945259434238E-02  2.3389329463543287E-01  8.4447234814083535E-06
  7.4108987786915159E-02  2.3342530351470014E-01  8.3687424697046143E-06
  7.4847313472504423E-02  2.3301985674429582E-01  8.2933884036598883E-06
  7.5592994876128403E-02  2.3257714475336055E-01  8.2186597167267633E-06
  7.6346105280606411E-02  2.3213749688856489E-01  8.1445547628245120E-06
  7.7106718698852619E-02  2.3166198127171386E-01  8.0710715752563075E-06
  7.7874909881149632E-02  2.3121330379820440E-01  7.9982075078027689E-06
  7.8650754322494881E-02  2.3075312733789091E-01  7.9259590097588779E-06
  7.9434328270019727E-02  2.3031798809035567E-01  7.8543216820788943E-06
  8.0225708730483111E-02  2.2989341446690620E-01  7.7832905539478549E-06
  8.1024973477839102E-02  2.2948796597576226E-01  7.7128604233512811E-06
  8.1832201060880461E-02  2.2910355919955408E-01  7.6430261352204030E-06
  8.2647470810958190E-02  2.2866983098641799E-01  7.5737827519333660E-06
  8.3470862849777699E-02  2.2822644764575895E-01  7.5051256267971477E-06
  8.4302458097272978E-02  2.2776100515513623E-01  7.4370504117875299E-06
  8.5142338279559290E-02  2.2725885645777175E-01  7.3695530353034798E-06
  8.5990585936964528E-02  2.2679256147492602E-01  7.3026296871835224E-06
  8.6847284432141375E-02  2.2630358681881493E-01  7.2362768974078447E-06
  8.7712517958259559E-02  2.2588525931782033E-01  7.1704917165004383E-06
  8.8586371547280329E-02  2.2547254373284889E-01  7.1052717727664446E-06
  8.9468931078312774E-02  2.2503239337143438E-01  7.0406150553266067E-06
  9.0360283286053930E-02  2.2468491076025743E-01  6.9765195030832525E-06
  9.1260515769312781E-02  2.2425016086790089E-01  6.9129825847647243E-06
  9.2169716999618914E-02  2.2382673746189691E-01  6.8500010207277541E-06
  9.3087976329917360E-02  2.2339946547008208E-01  6.7875706861715206E-06
  9.4015384003349869E-02  2.2295979130489302E-01  6.7256866539988005E-06
  9.4952031162123529E-02  2.2249773138771273E-01  6.6643433166097120E-06
  9.5898009856468139E-02  2.2203846293418136E-01  6.6035345331737783E-06
  9.6853413053682225E-02  2.2163789530054046E-01  6.5432537644685381E-06
  9.7818334647269883E-02  2.2120434618832963E-01  6.4834941415094713E-06
  9.8792869466167998E-02  2.2074998154914435E-01  6.4242484451863410E-06
  9.9777113284065785E-02  2.2028744214359117E-01  6.3655091619418015E-06
  1.0077116282881723E-01  2.1984630359303176E-01  6.3072687737787306E-06
  1.0177511579194688E-01  2.1944461786388042E-01  6.2495202308408775E-06
  1.0278907083825069E-01  2.1901710640614624E-01  6.1922574279371935E-06
  1.0381312761549266E-01  2.1863845814380650E-01  6.1354755169352951E-06
  1.0484738676419751E-01  2.1823919750163365E-01  6.0791709915698961E-06
  1.0589194992754139E-01  2.1781723679195578E-01  6.0233415917615404E-06
  1.0694691976134116E-01  2.1732573162367388E-01  5.9679861062134062E-06
  1.0801239994414283E-01  2.1680339700466283E-01  5.9131041425874539E-06
  1.0908849518741075E-01  2.1631252413347851E-01  5.8586959112303460E-06
  1.1017531124581818E-01  2.1586764303578268E-01  5.8047620620376918E-06
  1.1127295492764082E-01  2.1547810236125553E-01  5.7513036218287487E-06
  1.1238153410525303E-01  2.1512347767085443E-01  5.6983219596862693E-06
  1.1350115772572944E-01  2.1475494258623370E-01  5.6458186298532586E-06
  1.1463193582155196E-01  2.1434868573013738E-01  5.5937950545401891E-06
  1.1577397952142306E-01  2.1393347915251215E-01  5.5422521366810724E-06
  1.1692740106118719E-01  2.1345169589497942E-01  5.4911899359831008E-06
  1.1809231379486115E-01  2.1299093580383976E-01  5.4406075057297939E-06
  1.1926883220577388E-01  2.1258285995924045E-01  5.3905028892424497E-06
  1.2045707191781733E-01  2.1216265756883315E-01  5.3408732266078233E-06
  1.2165714970680981E-01  2.1173129549441821E-01  5.2917149149566739E-06
  1.2286918351197228E-01  2.1130977215385896E-01  5.2430237776542768E-06
  1.2409329244751878E-01  2.1086379153747276E-01  5.1947952106060529E-06
  1.2532959681436256E-01  2.1044189930562951E-01  5.1470242489180565E-06
  1.2657821811193917E-01  2.1005211927793174E-01  5.0997055341059380E-06
  1.2783927905014653E-01  2.0962679266757361E-01  5.0528332779620495E-06
  1.2911290356140445E-01  2.0920528370075908E-01  5.0064013213495926E-06
  1.3039921681283465E-01  2.0875412964613646E-01  4.9604033066418010E-06
  1.3169834521856139E-01  2.0829815606788807E-01  4.9148329103793463E-06
  1.3301041645213491E-01  2.0790076028282944E-01  4.8696840494661318E-06
  1.3433555945907891E-01  2.0746860206557013E-01  4.8249510124942218E-06
  1.3567390446956296E-01  2.0704005299567141E-01  4.7806285122949111E-06
  1.3702558301120060E-01  2.0662066664677428E-01  4.7367116771826099E-06
  1.3839072792197574E-01  2.0619022225999584E-01  4.6931960073324704E-06
  1.3976947336329762E-01  2.0580365053264060E-01  4.6500773186503416E-06
  1.4116195483318522E-01  2.0542262830049521E-01  4.6073517089820024E-06
  1.4256830917958377E-01  2.0500028559199726E-01  4.5650155930702458E-06
  1.4398867461381382E-01  2.0455394562949231E-01  4.5230657723931358E-06
  1.4542319072415397E-01  2.0410002788786588E-01  4.4814994585353635E-06
  1.4687199848955895E-01  2.0364332641750973E-01  4.4403142037367853E-06
  1.4833524029351472E-01  2.0321727416690236E-01  4.3995077525464448E-06
  1.4981305993803146E-01  2.0277630537834343E-01  4.3590778719073783E-06
  1.5130560265777565E-01  2.0236234896017255E-01  4.3190222136539785E-06
  1.5281301513434323E-01  2.0196989495863374E-01  4.2793382312337660E-06
  1.5433544551067532E-01  2.0156272581297865E-01  4.2400231506866604E-06
  1.5587304340561661E-01  2.0118506102492292E-01  4.2010739806943099E-06
  1.5742595992861963E-01  2.0077928186784416E-01  4.1624875433609442E-06
  1.5899434769459528E-01  2.0039686372616108E-01  4.1242605110929535E-06
  1.6057836083891130E-01  1.9999635647651864E-01  4.0863894250202378E-06
  1.6217815503253971E-01  1.9955897245740511E-01  4.0488707026675620E-06
  1.6379388749735602E-01  1.9912599727237751E-01  4.0117006783270676E-06
  1.6542571702159040E-01  1.9866109881128244E-01  3.9748757025450522E-06
  1.6707380397543248E-01  1.9822597098871422E-01  3.9383922866642623E-06
  1.6873831032679218E-01  1.9778394030442945E-01  3.9022472467473399E-06
  1.7041939965721747E-01  1.9738381480760803E-01  3.8664378004808029E-06
  1.7211723717797012E-01  1.9698974940741210E-01  3.8309616018738798E-06
  1.7383198974626227E-01  1.9655816840461282E-01  3.7958167202793682E-06
  1.7556382588165481E-01  1.9615586225359008E-01  3.7610015826236014E-06
  1.7731291578261871E-01  1.9570161126181942E-01  3.7265149010003041E-06
  1.7907943134326088E-01  1.9528836034364416E-01  3.6923555982401699E-06
  1.8086354617021824E-01  1.9484503130171354E-01  3.6585227426785483E-06
  1.8266543559971882E-01  1.9442752052581541E-01  3.6250155044480143E-06
  1.8448527671481274E-01  1.9406214897666257E-01  3.5918331345514618E-06
  1.8632324836277561E-01  1.9371376440613999E-01  3.5589749579739458E-06
  1.8817953117268538E-01  1.9331855659537103E-01  3.5264403661346582E-06
  1.9005430757317301E-01  1.9293826179428425E-01  3.4942288002187084E-06
  1.9194776181035156E-01  1.9250861266345573E-01  3.4623397315459018E-06
  1.9386007996592303E-01  1.9207903863640471E-01  3.4307726417533054E-06
  1.9579144997546596E-01  1.9163473129866765E-01  3.3995270044446884E-06
  1.9774206164690436E-01  1.9120326845828883E-01  3.3686022716473717E-06
  1.9971210667916228E-01  1.9077668161605266E-01  3.3379978651301638E-06
  2.0170177868100278E-01  1.9035833731005572E-01  3.3077131711179656E-06
  2.0371127319005500E-01  1.8994849822305696E-01  3.2777475361252190E-06
  2.0574078769203086E-01  1.8953253242256296E-01  3.2481002995582169E-06
  2.0779052164013387E-01  1.8912657069328806E-01  3.2187709784098131E-06
  2.0986067647465972E-01  1.8874376007346347E-01  3.1897596905603792E-06
  2.1195145564279358E-01  1.8834706969631798E-01  3.1610677741732719E-06
  2.1406306461860428E-01  1.8793244629366182E-01  3.1326984438581952E-06
  2.1619571092323753E-01  1.8754347817062811E-01  3.1046572883539985E-06
  2.1834960414530941E-01  1.8713567410181844E-01  3.0769524784198561E-06
  2.2052495596150548E-01  1.8672458761841620E-01  3.0495946664018738E-06
  2.2272198015738268E-01  1.8629829066299863E-01  3.0225966517408700E-06
  2.2494089264837916E-01  1.8589577844386310E-01  2.9959729248190273E-06
  2.2718191150103426E-01  1.8547610034508505E-01  2.9697391907899304E-06
  2.2944525695441925E-01  1.8506597624436738E-01  2.9439119408094628E-06
  2.3173115144178105E-01  1.8460688993925106E-01  2.9185080942104852E-06
  2.3403981961240258E-01  1.8422803483279113E-01  2.8935446496823253E-06
  2.3637148835368052E-01  1.8384158233325232E-01  2.8690382749746530E-06
  2.3872638681342315E-01  1.8343875574285107E-01  2.8450048178834027E-06
  2.4110474642236895E-01  1.8304459607967993E-01  2.8214587852136110E-06
  2.4350680091693241E-01  1.8266776799579990E-01  2.7984128910490631E-06
  2.4593278636217394E-01  1.8227118117495889E-01  2.7758778046184606E-06
  2.4838294117499932E-01  1.8186908812703761E-01  2.7538621236923981E-06
  2.5085750614759061E-01  1.8140380368116801E-01  2.7323725430890345E-06
  2.5335672447107077E-01  1.8100795470460188E-01  2.7114141506598733E-06
  2.5588084175940295E-01  1.8059736141044166E-01  2.6909907731009727E-06
  2.5843010607352856E-01  1.8016089664701262E-01  2.6711053068106297E-06
  2.6100476794574645E-01  1.7979501985853238E-01  2.6517600118815073E-06
  2.6360508040433384E-01  1.7937426442503948E-01  2.6329569226913341E-06
  2.6623129899841230E-01  1.7903282039074853E-01  2.6146986627828149E-06
  2.6888368182306360E-01  1.7865350080880046E-01  2.5969898080132287E-06
  2.7156248954469364E-01  1.7823808203035915E-01  2.5798386742646522E-06
  2.7426798542664943E-01  1.7787022487272469E-01  2.5632591776443491E-06
  2.7700043535509189E-01  1.7745436165454959E-01  2.5472722995250627E-06
  2.7976010786512689E-01  1.7706215724567217E-01  2.5319068342994967E-06
  2.8254727416719466E-01  1.7667668780632001E-01  2.5171993487588441E-06
  2.8536220817372404E-01  1.7627606243712252E-01  2.5031935046827426E-06
  2.8820518652605170E-01  1.7587903631991747E-01  2.4899390184034883E-06
  2.9107648862160945E-01  1.7546817142234822E-01  2.4774905292644223E-06
  2.9397639664138131E-01  1.7510956311189102E-01  2.4659065814160935E-06
  2.9690519557763689E-01  1.7474710490600234E-01  2.4552487527191408E-06
  2.9986317326193840E-01  1.7437311158249433E-01  2.4455807299025092E-06
  3.0285062039342758E-01  1.7400154426713388E-01  2.4369671701250681E-06
  3.0586783056739486E-01  1.7364877235944726E-01  2.4294722978297153E-06
  3.0891510030413305E-01  1.7328166946503651E-01  2.4231583302272087E-06
  3.1199272907807768E-01  1.7294444435119471E-01  2.4180840884180282E-06
  3.1510101934723839E-01  1.7259420278563628E-01  2.4143041629142632E-06
  3.1824027658292414E-01  1.7224776132111480E-01  2.4118687542942488E-06
  3.2141080929976268E-01  1.7188006139862422E-01  2.4108241772843242E-06
  3.2461292908602063E-01  1.7152527598021208E-01  2.4112138581108054E-06
  3.2784695063422581E-01  1.7114172090674121E-01  2.4130795942947955E-06
  3.3111319177209353E-01  1.7076813995667958E-01  2.4164628745744784E-06
  3.3441197349376128E-01  1.7039031438521213E-01  2.4214060750351065E-06
  3.3774361999133518E-01  1.7002051272248350E-01  2.4279533690624649E-06
  3.4110845868675083E-01  1.6964160915146917E-01  2.4361511481027543E-06
  3.4450682026395013E-01  1.6933800337681698E-01  2.4460478755142499E-06
  3.4793903870138032E-01  1.6902040683451749E-01  2.4576934818965994E-06
  3.5140545130481632E-01  1.6872749517561997E-01  2.4711385195178268E-06
  3.5490639874050983E-01  1.6841889005033445E-01  2.4864332663871015E-06
  3.5844222506866741E-01  1.6812585590584045E-01  2.5036271076586387E-06
  3.6201327777726577E-01  1.6777372036331387E-01  2.5227683673178025E-06
  3.6561990781620035E-01  1.6746929361250967E-01  2.5439045954746516E-06
  3.6926246963177439E-01  1.6710982355655393E-01  2.5670831994663193E-06
  3.7294132120153478E-01  1.6680698891875378E-01  2.5923522584310447E-06
  3.7665682406945161E-01  1.6647340762617918E-01  2.6197613545952394E-06
  3.8040934338144838E-01  1.6613292207820871E-01  2.6493622066859022E-06
  3.8419924792128934E-01  1.6581923605420285E-01  2.6812087448179554E-06
  3.8802691014682117E-01  1.6550366734524044E-01  2.7153562693047357E-06
  3.9189270622657502E-01  1.6520185536098353E-01  2.7518595356251926E-06
  3.9579701607673956E-01  1.6487314616236431E-01  2.7907698840588896E-06
  3.9974022339849241E-01  1.6456307329335373E-01  2.8321316752463580E-06
  4.0372271571571111E-01  1.6426660974902796E-01  2.8759786349856900E-06
  4.0774488441306039E-01  1.6394977281785494E-01  2.9223307413419908E-06
  4.1180712477445042E-01  1.6362066700597241E-01  2.9711920453692020E-06
  4.1590983602188830E-01  1.6332004436874104E-01  3.0225495101884713E-06
  4.2005342135471091E-01  1.6300687786326426E-01  3.0763726804041591E-06
  4.2423828798920793E-01  1.6266124808627497E-01  3.1326138149200538E-06
  4.2846484719864475E-01  1.6234129291937463E-01  3.1912081763488074E-06
  4.3273351435367907E-01  1.6200679304549948E-01  3.2520744234184701E-06
  4.3704470896318126E-01  1.6170523070560217E-01  3.3151150423844559E-06
  4.4139885471546403E-01  1.6138559304496142E-01  3.3802170098604186E-06
  4.4579637951992052E-01  1.6107568423773549E-01  3.4472530490719947E-06
  4.5023771554907549E-01  1.6076771986668414E-01  3.5160832950909046E-06
  4.5472329928106092E-01  1.6045496678810159E-01  3.5865570293190798E-06
  4.5925357154250979E-01  1.6009485410559518E-01  3.6585142957065865E-06
  4.6382897755187757E-01  1.5980078761381816E-01  3.7317869886854244E-06
  4.6844996696319963E-01  1.5943338652812197E-01  3.8061991345789323E-06
  4.7311699391028000E-01  1.5908085408638725E-01  3.8815663204124399E-06
  4.7783051705132001E-01  1.5874112976059646E-01  3.9576944458314597E-06
  4.8259099961399893E-01  1.5838975990070181E-01  4.0343781638372975E-06
  4.8739890944099207E-01  1.5804650099678000E-01  4.1113993873486630E-06
  4.9225471903595136E-01  1.5770700201934612E-01  4.1885264671979094E-06
  4.9715890560994402E-01  1.5737753366042748E-01  4.2655145607123881E-06
  5.0211195112834550E-01  1.5703858506351440E-01  4.3421075001428275E-06
  5.0711434235820951E-01  1.5665366336676367E-01  4.4180413498160704E-06
  5.1216657091610507E-01  1.5634343732860792E-01  4.4930496571153880E-06
