 #p(MeV) \t \delta f_\\nu \t \delta f_\\nubar
  2.1301498923667972E+00  1.3687955788437698E-08  1.3068895329878661E-08
  2.1513719387967347E+00  1.3425420636824031E-08  1.2822405540743882E-08
  2.1728054141295328E+00  1.3168001606792636E-08  1.2580592966307922E-08
  2.1944524247681323E+00  1.2915592949733644E-08  1.2343364412347969E-08
  2.2163150981009330E+00  1.2668094785287857E-08  1.2110632009933807E-08
  2.2383955827108726E+00  1.2425414655365422E-08  1.1882314697171106E-08
  2.2606960485865750E+00  1.2187462205267199E-08  1.1658333181492586E-08
  2.2832186873356122E+00  1.1954148617798270E-08  1.1438609410886774E-08
  2.3059657123998907E+00  1.1725386592460575E-08  1.1223066560639428E-08
  2.3289393592731713E+00  1.1501090324760474E-08  1.1011629020016833E-08
  2.3521418857207763E+00  1.1281175485635671E-08  1.0804222378898659E-08
  2.3755755720014653E+00  1.1065559201006811E-08  1.0600773414368690E-08
  2.3992427210915337E+00  1.0854160031457932E-08  1.0401210077270960E-08
  2.4231456589111442E+00  1.0646897952050237E-08  1.0205461478738682E-08
  2.4472867345529026E+00  1.0443694332273455E-08  1.0013457876703463E-08
  2.4716683205127272E+00  1.0244471908150034E-08  9.8251306546140893E-09
  2.4962928129229986E+00  1.0049153501326618E-08  9.6404111000167696E-09
  2.5211626317880489E+00  9.8576589702698849E-09  9.4592275013868546E-09
  2.5462802212219926E+00  9.6699088398678926E-09  9.2815086160907562E-09
  2.5716480496889185E+00  9.4858254222859500E-09  9.1071847425623528E-09
  2.5972686102454894E+00  9.3053327737828064E-09  8.9361876848001030E-09
  2.6231444207859420E+00  9.1283566522879893E-09  8.7684507173942675E-09
  2.6492780242895404E+00  8.9548244760915654E-09  8.6039085514233515E-09
  2.6756719890704965E+00  8.7846652836153418E-09  8.4424973011967717E-09
  2.7023289090303599E+00  8.6178096942350279E-09  8.2841544518214951E-09
  2.7292514039129543E+00  8.4541898701235483E-09  8.1288188275704936E-09
  2.7564421195618225E+00  8.2937394790873465E-09  7.9764305610322308E-09
  2.7839037281802552E+00  8.1363936602297738E-09  7.8269310648326073E-09
  2.8116389285939092E+00  7.9820893762902461E-09  7.6802633759610970E-09
  2.8396504465160302E+00  7.8307679687646985E-09  7.5363746109140467E-09
  2.8679410348153342E+00  7.6823735722020352E-09  7.3952144470473920E-09
  2.8965134737865412E+00  7.5368513099552300E-09  7.2567334002741081E-09
  2.9253705714236165E+00  7.3941472503244274E-09  7.1208827864776132E-09
  2.9545151636957341E+00  7.2542083931703512E-09  6.9876147118698059E-09
  2.9839501148259733E+00  7.1169826566281176E-09  6.8568820633600805E-09
  3.0136783175728201E+00  6.9824188639232046E-09  6.7286384989388546E-09
  3.0437026935144420E+00  6.8504667302921341E-09  6.6028384380799281E-09
  3.0740261933358166E+00  6.7210768500093190E-09  6.4794370521649352E-09
  3.1046517971187182E+00  6.5942006835221780E-09  6.3583902549338892E-09
  3.1355825146345806E+00  6.4697905446277502E-09  6.2396546928989099E-09
  3.1668213856402900E+00  6.3477995034011853E-09  6.1231876540061134E-09
  3.1983714801769256E+00  6.2281798893927063E-09  6.0089456277191932E-09
  3.2302358988714626E+00  6.1108831213604786E-09  5.8968841461830752E-09
  3.2624177732415021E+00  5.9958615505935965E-09  5.7869595587163259E-09
  3.2949202660030110E+00  5.8830685754740096E-09  5.6791291443241486E-09
  3.3277465713811569E+00  5.7724586167755025E-09  5.5733510905870584E-09
  3.3608999154242132E+00  5.6639870935875010E-09  5.4695844730601099E-09
  3.3943835563206068E+00  5.5576103998465141E-09  5.3677892351694766E-09
  3.4282007847191274E+00  5.4532858814589776E-09  5.2679261685935776E-09
  3.4623549240523088E+00  5.3509718139994309E-09  5.1699568941164070E-09
  3.4968493308630504E+00  5.2506273809685838E-09  5.0738438429408583E-09
  3.5316873951344880E+00  5.1522126525962233E-09  4.9795502384502917E-09
  3.5668725406231419E+00  5.0556885829800938E-09  4.8870400957381113E-09
  3.6024082251953984E+00  4.9610176462689377E-09  4.7962788397971432E-09
  3.6382979411673286E+00  4.8681646403704122E-09  4.7072340822563883E-09
  3.6745452156479086E+00  4.7770952815431654E-09  4.6198742662619008E-09
  3.7111536108856447E+00  4.6877758966973557E-09  4.5341683717115110E-09
  3.7481267246186571E+00  4.6001734137636945E-09  4.4500859075959981E-09
  3.7854681904282605E+00  4.5142553521827611E-09  4.3675969044096638E-09
  3.8231816780960508E+00  4.4299898135095781E-09  4.2866719066264846E-09
  3.8612708939645581E+00  4.3473454721327882E-09  4.2072819652426877E-09
  3.8997395813015014E+00  4.2662915661080845E-09  4.1293986303863563E-09
  3.9385915206676487E+00  4.1867978881053709E-09  4.0529939439947768E-09
  3.9778305302883745E+00  4.1088347764691278E-09  3.9780404325601042E-09
  4.0174604664288784E+00  4.0323731035995996E-09  3.9045110972302872E-09
  4.0574852237731891E+00  3.9573840825849864E-09  3.8323792273569442E-09
  4.0979087358069020E+00  3.8838386859998268E-09  3.7616178398919735E-09
  4.1387349752037492E+00  3.8117081453912574E-09  3.6922001642717348E-09
  4.1799679542160337E+00  3.7409642829120504E-09  3.6240999639565792E-09
  4.2216117250689198E+00  3.6715795015657331E-09  3.5572915282226832E-09
  4.2636703803586800E+00  3.6035267728043277E-09  3.4917496613635400E-09
  4.3061480534549075E+00  3.5367796244044028E-09  3.4274496721218632E-09
  4.3490489189067105E+00  3.4713121286147639E-09  3.3643673633467197E-09
  4.3923771928529902E+00  3.4070988905689888E-09  3.3024790218705405E-09
  4.4361371334367714E+00  3.3441150369566603E-09  3.2417614086011293E-09
  4.4803330412236928E+00  3.2823362049468532E-09  3.1821917488236899E-09
  4.5249692596246378E+00  3.2217385313831750E-09  3.1237477227323391E-09
  4.5700501753225895E+00  3.1622986486290388E-09  3.0664074623096262E-09
  4.6155802187037525E+00  3.1039936006742168E-09  3.0101494695509037E-09
  4.6615638642929351E+00  3.0468008957210106E-09  2.9549526689256952E-09
  4.7080056311933012E+00  2.9906985106126288E-09  2.9007964136193917E-09
  4.7549100835304925E+00  2.9356648756124690E-09  2.8476604716386575E-09
  4.8022818309011610E+00  2.8816788646769567E-09  2.7955250171969760E-09
  4.8501255288260019E+00  2.8287197859493476E-09  2.7443706222883327E-09
  4.8984458792072605E+00  2.7767673724690839E-09  2.6941782484445338E-09
  4.9472476307908391E+00  2.7258017730912423E-09  2.6449292386717951E-09
  4.9965355796329689E+00  2.6758035436110940E-09  2.5966053095623877E-09
  5.0463145695715506E+00  2.6267536380885142E-09  2.5491885435771807E-09
  5.0965894927022077E+00  2.5786334003675780E-09  2.5026613814950459E-09
  5.1473652898590370E+00  2.5314245624942324E-09  2.4570066215561772E-09
  5.1986469511001889E+00  2.4851095760109013E-09  2.4122077426370441E-09
  5.2504395161982806E+00  2.4396718275459468E-09  2.3682491139727023E-09
  5.3027480751356650E+00  2.3950950657532861E-09  2.3251154386397026E-09
  5.3555777686046788E+00  2.3513633193342651E-09  2.2827916746066002E-09
  5.4089337885128277E+00  2.3084608929575770E-09  2.2412630313086078E-09
  5.4628213784930502E+00  2.2663723632165407E-09  2.2005149662432131E-09
  5.5172458344190236E+00  2.2250825746241291E-09  2.1605331815874649E-09
  5.5722125049256315E+00  2.1845766356458936E-09  2.1213036208375705E-09
  5.6277267919346174E+00  2.1448399147711356E-09  2.0828124654714068E-09
  5.6837941511854435E+00  2.1058580366225388E-09  2.0450461316345656E-09
  5.7404200927714779E+00  2.0676168781044326E-09  2.0079912668504448E-09
  5.7976101816815051E+00  2.0301025636718474E-09  1.9716347458761787E-09
  5.8553700383466198E+00  1.9933013029969921E-09  1.9359635133687842E-09
  5.9137053391926031E+00  1.9571988605967489E-09  1.9009640690082309E-09
  5.9726218171977568E+00  1.9217810584942026E-09  1.8666229564331669E-09
  6.0321252624563417E+00  1.8870340271970168E-09  1.8329270072275478E-09
  6.0922215227475887E+00  1.8529441997588191E-09  1.7998633355578462E-09
  6.1529165041104044E+00  1.8194983046873079E-09  1.7674193316802224E-09
  6.2142161714238036E+00  1.7866833590307746E-09  1.7355826556072540E-09
  6.2761265489930995E+00  1.7544866616382054E-09  1.7043412309300029E-09
  6.3386537211419567E+00  1.7228957865882704E-09  1.6736832387913375E-09
  6.4018038328103453E+00  1.6918985767827042E-09  1.6435971120065811E-09
  6.4655830901584279E+00  1.6614831376996499E-09  1.6140715293276132E-09
  6.5299977611764843E+00  1.6316378313971957E-09  1.5850954099371534E-09
  6.5950541763009110E+00  1.6023512971353521E-09  1.5566579336730357E-09
  6.6607587290363526E+00  1.5736127486095836E-09  1.5287488301058747E-09
  6.7271178765840220E+00  1.5454118937655028E-09  1.5013583009870444E-09
  6.7941381404762948E+00  1.5177386408878639E-09  1.4744767350762101E-09
  6.8618261072176372E+00  1.4905830830193859E-09  1.4480946932720377E-09
  6.9301884289318760E+00  1.4639354947772400E-09  1.4222029057632769E-09
  6.9992318240159603E+00  1.4377863292190526E-09  1.3967922692205635E-09
  7.0689630778002277E+00  1.4121262147578238E-09  1.3718538440285351E-09
  7.1393890432152283E+00  1.3869459521250677E-09  1.3473788515578069E-09
  7.2105166414652029E+00  1.3622365113815517E-09  1.3233586714763928E-09
  7.2823528627082919E+00  1.3379890289749781E-09  1.2997848391001128E-09
  7.3549047667434895E+00  1.3141948048442102E-09  1.2766490427817828E-09
  7.4281794837044499E+00  1.2908452995973803E-09  1.2539431214102523E-09
  7.5021842147602174E+00  1.2679320962610599E-09  1.2316590275206844E-09
  7.5769262328229390E+00  1.2454468431339709E-09  1.2097887718356880E-09
  7.6524128832626035E+00  1.2233813361283548E-09  1.1883245034250076E-09
  7.7286515846289188E+00  1.2017275304521250E-09  1.1672585212242256E-09
  7.8056498293804015E+00  1.1804775375074147E-09  1.1465832711939749E-09
  7.8834151846206808E+00  1.1596236218505455E-09  1.1262913435331684E-09
  7.9619552928421706E+00  1.1391581982120883E-09  1.1063754699451155E-09
  8.0412778726771670E+00  1.1190738285757677E-09  1.0868285209554938E-09
  8.1213907196563877E+00  1.0993632193149916E-09  1.0676435032811779E-09
  8.2023017069750832E+00  1.0800192183858036E-09  1.0488135572488671E-09
  8.2840187862667953E+00  1.0610348125750678E-09  1.0303319542625669E-09
  8.3665499883848273E+00  1.0424031243005611E-09  1.0121920938281526E-09
  8.4499034241914579E+00  1.0241173975997400E-09  9.9438749013885457E-10
  8.5340872853550582E+00  1.0061710243354457E-09  9.7691179769597386E-10
  8.6191098451551635E+00  9.8855753900670885E-10  9.5975880631232199E-10
  8.7049794592955010E+00  9.7127060041607731E-10  9.4292242342883995E-10
  8.7917045667251692E+00  9.5430398920321692E-10  9.2639667183086800E-10
  8.8792936904680158E+00  9.3765160551826255E-10  9.1017568749641234E-10
  8.9677554384602161E+00  9.2130746673951458E-10  8.9425371748396712E-10
  9.0570985043962313E+00  9.0526570523460746E-10  8.7862511785912761E-10
  9.1473316685832078E+00  8.8952056616430260E-10  8.6328435165928303E-10
  9.2384637988038758E+00  8.7406640532806280E-10  8.4822598689568618E-10
  9.3305038511880163E+00  8.5889768705061685E-10  8.3344469459219768E-10
  9.4234608710926580E+00  8.4400898213225083E-10  8.1893524688483151E-10
  9.5173439939910320E+00  8.2939497137622782E-10  8.0469252042301696E-10
  9.6121624463703359E+00  8.1505038077179739E-10  7.9071143328214691E-10
  9.7079255466385099E+00  8.0096997410346533E-10  7.7698693814862032E-10
  9.8046427060400099E+00  7.8714861947197998E-10  7.6351408705019774E-10
  9.9023234295807079E+00  7.7358128987825637E-10  7.5028803199990694E-10
  1.0000977316961997E+01  7.6026306097313746E-10  7.3730402288534685E-10
  1.0100614063524224E+01  7.4718910885849463E-10  7.2455740540513843E-10
  1.0201243461199530E+01  7.3435470793843145E-10  7.1204361905142200E-10
  1.0302875399474132E+01  7.2175522881933280E-10  6.9975819513725976E-10
  1.0405519866360239E+01  7.0938613625754988E-10  6.8769675486787530E-10
  1.0509186949377659E+01  6.9724298715356589E-10  6.7585500745467218E-10
  1.0613886836545120E+01  6.8532142859204598E-10  6.6422874827149827E-10
  1.0719629817381543E+01  6.7361718979476728E-10  6.5281385119910845E-10
  1.0826426283917254E+01  6.6212608053448614E-10  6.4160626770041572E-10
  1.0934286731715281E+01  6.5084404419287544E-10  6.3060207797299994E-10
  1.1043221760902767E+01  6.3976711164459161E-10  6.1979744598141977E-10
  1.1153242077212793E+01  6.2889139123892214E-10  6.0918860977825765E-10
  1.1264358493036447E+01  6.1821306725644571E-10  5.9877188005133110E-10
  1.1376581928485427E+01  6.0772839839769308E-10  5.8854363870038314E-10
  1.1489923412465240E+01  5.9743371630307549E-10  5.7850033744260175E-10
  1.1604394083759097E+01  5.8732542410339574E-10  5.6863849644635046E-10
  1.1720005192122555E+01  5.7739999500024730E-10  5.5895470299247545E-10
  1.1836768099389126E+01  5.6765397087563551E-10  5.4944561016259454E-10
  1.1954694280586880E+01  5.5808396093017428E-10  5.4010793555377841E-10
  1.2073795325066170E+01  5.4868664286761321E-10  5.3093846241142132E-10
  1.2194082937638546E+01  5.3945882451558365E-10  5.2193409852700220E-10
  1.2315568939727125E+01  5.3039748731235074E-10  5.1309191849752610E-10
  1.2438265270528328E+01  5.2149968547039544E-10  5.0440906675380859E-10
  1.2562183988185208E+01  5.1276252170963028E-10  4.9588273408231490E-10
  1.2687337270972483E+01  5.0418314657784201E-10  4.8751015699819278E-10
  1.2813737418493412E+01  4.9575875779965367E-10  4.7928861714481516E-10
  1.2941396852888495E+01  4.8748659963130222E-10  4.7121544069786675E-10
  1.3070328120056310E+01  4.7936396222120830E-10  4.6328799777394876E-10
  1.3200543890886474E+01  4.7138818097632244E-10  4.5550370184374058E-10
  1.3332056962504907E+01  4.6355663593423428E-10  4.4786000914972159E-10
  1.3464880259531423E+01  4.5586675114103268E-10  4.4035441812847458E-10
  1.3599026835349996E+01  4.4831599386412267E-10  4.3298446867980599E-10
  1.3734509873391561E+01  4.4090183416455312E-10  4.2574770373519376E-10
  1.3871342688429610E+01  4.3362160444938010E-10  4.1864153401740645E-10
  1.4009538727888753E+01  4.2647259928999834E-10  4.1166333353144528E-10
  1.4149111573166287E+01  4.1945217150694909E-10  4.0481053251762088E-10
  1.4290074940966880E+01  4.1255773311406751E-10  3.9808061838195444E-10
  1.4432442684650642E+01  4.0578675386845008E-10  3.9147113430509584E-10
  1.4576228795594570E+01  3.9913675986065043E-10  3.8497967788954883E-10
  1.4721447404567581E+01  3.9260533214381204E-10  3.7860389984399050E-10
  1.4868112783119170E+01  3.8619010540051386E-10  3.7234150270351052E-10
  1.5016239344982052E+01  3.7988876664612731E-10  3.6619023958464375E-10
  1.5165841647488653E+01  3.7369905396755063E-10  3.6014791297410467E-10
  1.5316934393001731E+01  3.6761875529815751E-10  3.5421237355174245E-10
  1.5469532430359282E+01  3.6164571364633824E-10  3.4838152504959900E-10
  1.5623650756333863E+01  3.5577788904746409E-10  3.4265338347295840E-10
  1.5779304517106370E+01  3.5001337280350073E-10  3.3702609154210142E-10
  1.5936509009754566E+01  3.4435030050549405E-10  3.3149783475071384E-10
  1.6095279683756448E+01  3.3878684133480617E-10  3.2606683101549307E-10
  1.6255632142508542E+01  3.3332119747562930E-10  3.2073133011713949E-10
  1.6417582144859306E+01  3.2795160353836328E-10  3.1548961315145425E-10
  1.6581145606657941E+01  3.2267632599358933E-10  3.1033999199028924E-10
  1.6746338602318477E+01  3.1749366261637851E-10  3.0528080875211082E-10
  1.6913177366399530E+01  3.1240194194068730E-10  3.0031043528195221E-10
  1.7081678295199740E+01  3.0739952272359285E-10  2.9542727264051419E-10
  1.7251857948369217E+01  3.0248479341914296E-10  2.9062975060221988E-10
  1.7423733050536882E+01  2.9765617233451993E-10  2.8591632782368654E-10
  1.7597320492954118E+01  2.9291214684015557E-10  2.8128552929853286E-10
  1.7772637335154833E+01  2.8825123434878054E-10  2.7673590817533960E-10
  1.7949700806631970E+01  2.8367195891947543E-10  2.7226602394609746E-10
  1.8128528308530704E+01  2.7917287088775954E-10  2.6787446151787626E-10
  1.8309137415358670E+01  2.7475254641679906E-10  2.6355983078662962E-10
  1.8491545876713058E+01  2.7040958705085527E-10  2.5932076621267902E-10
  1.8675771619024975E+01  2.6614261928075024E-10  2.5515592640733849E-10
  1.8861832747321195E+01  2.6195029412073630E-10  2.5106399373010490E-10
  1.9049747547003488E+01  2.5783128669619362E-10  2.4704367389586700E-10
  1.9239534485645589E+01  2.5378429584161464E-10  2.4309369559161731E-10
  1.9431212214808145E+01  2.4980804370835889E-10  2.3921281010218876E-10
  1.9624799571871755E+01  2.4590127532491504E-10  2.3539979089138713E-10
  1.9820315581888185E+01  2.4206271406845792E-10  2.3165339142460468E-10
  2.0017779459450086E+01  2.3829102156415786E-10  2.2797230827370929E-10
  2.0217210610579393E+01  2.3458491324326737E-10  2.2435529064435772E-10
  2.0418628634634416E+01  2.3094313212312442E-10  2.2080111453527813E-10
  2.0622053326235999E+01  2.2736444674079411E-10  2.1730858074346653E-10
  2.0827504677212872E+01  2.2384765058785251E-10  2.1387651431728361E-10
  2.1035002878566416E+01  2.2039156156465248E-10  2.1050376402832905E-10
  2.1244568322454874E+01  2.1699502145310864E-10  2.0718920186115257E-10
  2.1456221604197481E+01  2.1365689540708449E-10  2.0393172251990841E-10
  2.1669983524298488E+01  2.1037607145951208E-10  2.0073024295110714E-10
  2.1885875090491371E+01  2.0715146004543206E-10  1.9758370188167477E-10
  2.2103917519803296E+01  2.0398199354088638E-10  1.9449105937217005E-10
  2.2324132240640402E+01  2.0086663699792534E-10  1.9145130687382433E-10
  2.2546540894893631E+01  1.9780440935025896E-10  1.8846348594201955E-10
  2.2771165340065540E+01  1.9479429481479575E-10  1.8552660403240310E-10
  2.2998027651418518E+01  1.9183529112388832E-10  1.8263968184324980E-10
  2.3227150124144192E+01  1.8892641803694517E-10  1.7980176150776080E-10
  2.3458555275554453E+01  1.8606671679487409E-10  1.7701190606562411E-10
  2.3692265847294500E+01  1.8325524959161913E-10  1.7426919895099691E-10
  2.3928304807577749E+01  1.8049109906212849E-10  1.7157274349627706E-10
  2.4166695353442954E+01  1.7777336778611888E-10  1.6892166245104862E-10
  2.4407460913034207E+01  1.7510117780701824E-10  1.6631509751561301E-10
  2.4650625147903053E+01  1.7247367016551927E-10  1.6375220888855148E-10
  2.4896211955333982E+01  1.6989000444717143E-10  1.6123217482777657E-10
  2.5144245470693150E+01  1.6734935741121850E-10  1.5875419037754689E-10
  2.5394750069799965E+01  1.6485099576494459E-10  1.5631753752359440E-10
  2.5647750371322935E+01  1.6239445695124848E-10  1.5392175791004237E-10
  2.5903271239199007E+01  1.5997932858130748E-10  1.5156644110712594E-10
  2.6161337785077016E+01  1.5760519165534481E-10  1.4925117022381938E-10
  2.6421975370785727E+01  1.5527162116604433E-10  1.4697552250047468E-10
  2.6685209610826220E+01  1.5297818668613991E-10  1.4473906988565777E-10
  2.6951066374889102E+01  1.5072445293897349E-10  1.4254137959602076E-10
  2.7219571790397065E+01  1.4850998035200687E-10  1.4038201465919713E-10
  2.7490752245072496E+01  1.4633432559331112E-10  1.3826053443975052E-10
  2.7764634389530691E+01  1.4419704209109362E-10  1.3617649514822931E-10
  2.8041245139899129E+01  1.4209768053634361E-10  1.3412945033341674E-10
  2.8320611680462633E+01  1.4003578943672291E-10  1.3211895141506610E-10
  2.8602761466334830E+01  1.3801086063997139E-10  1.3014449574442876E-10
  2.8887722226156527E+01  1.3602198789330295E-10  1.2820520178700034E-10
  2.9175521964820689E+01  1.3406810525738337E-10  1.2630003656173718E-10
  2.9466188966224536E+01  1.3214818154080428E-10  1.2442800100786262E-10
  2.9759751796049507E+01  1.3026122075499342E-10  1.2258813039436116E-10
  3.0056239304568209E+01  1.2840626087341681E-10  1.2077949310972518E-10
  3.0355680629479878E+01  1.2658237264562658E-10  1.1900118950491718E-10
  3.0658105198774116E+01  1.2478865846346778E-10  1.1725235078693192E-10
  3.0963542733622592E+01  1.2302425127689650E-10  1.1553213796047268E-10
  3.1272023251300222E+01  1.2128831355696801E-10  1.1383974081536866E-10
  3.1583577068135064E+01  1.1958003630369304E-10  1.1217437695748886E-10
