 #p(MeV) \t \delta f_\\nu \t \delta f_\\nubar
  3.7490235303306680E+00  2.9705037227453241E-10  2.9091544132387767E-10
  3.7863739307474220E+00  2.9171696821816104E-10  2.8567291622149499E-10
  3.8240964420351795E+00  2.8648312163595348E-10  2.8052817701533343E-10
  3.8621947714232854E+00  2.8134690043874167E-10  2.7547933186061393E-10
  3.9006726630750945E+00  2.7630650129485506E-10  2.7052461493100517E-10
  3.9395338984559487E+00  2.7136017760090016E-10  2.6566231576082958E-10
  3.9787822967047930E+00  2.6650621218767271E-10  2.6089075249139335E-10
  4.0184217150095112E+00  2.6174291690525480E-10  2.5620827147543972E-10
  4.0584560489860033E+00  2.5706863221540632E-10  2.5161324688837373E-10
  4.0988892330610165E+00  2.5248172678767914E-10  2.4710408034275230E-10
  4.1397252408588248E+00  2.4798059709924167E-10  2.4267920050604205E-10
  4.1809680855917266E+00  2.4356366703841485E-10  2.3833706272165863E-10
  4.2226218204544512E+00  2.3922938751191515E-10  2.3407614863329166E-10
  4.2646905390225065E+00  2.3497623605581005E-10  2.2989496581252533E-10
  4.3071783756544555E+00  2.3080271645017827E-10  2.2579204738976694E-10
  4.3500895058982527E+00  2.2670734977542821E-10  2.2176594332117877E-10
  4.3934281469015781E+00  2.2268859936608621E-10  2.1781514700590532E-10
  4.4371985578262940E+00  2.1874491128387705E-10  2.1393813488555574E-10
  4.4814050402670267E+00  2.1487476523380641E-10  2.1013341627667735E-10
  4.5260519386738931E+00  2.1107667450416316E-10  2.0639953331693838E-10
  4.5711436407794768E+00  2.0734918516232026E-10  2.0273506018223891E-10
  4.6166845780300232E+00  2.0369087527189581E-10  1.9913860232452612E-10
  4.6626792260209511E+00  2.0010035413062818E-10  1.9560879572968610E-10
  4.7091321049367059E+00  1.9657626152834920E-10  1.9214430619491365E-10
  4.7560477799949661E+00  1.9311726702445209E-10  1.8874382862498657E-10
  4.8034308618953236E+00  1.8972206924427584E-10  1.8540608634687324E-10
  4.8512860072723818E+00  1.8638939519384831E-10  1.8212983044214209E-10
  4.8996179191534015E+00  1.8311800157392938E-10  1.7891384102560234E-10
  4.9484313474205051E+00  1.7990673666597216E-10  1.7575698760593939E-10
  4.9977310892774636E+00  1.7675455089283819E-10  1.7265823940334490E-10
  5.0475219897211616E+00  1.7366041588154971E-10  1.6961658632470185E-10
  5.0978089420177310E+00  1.7062331858977545E-10  1.6663103322865582E-10
  5.1485968881834534E+00  1.6764226116924587E-10  1.6370059979693284E-10
  5.1998908194704478E+00  1.6471626082804922E-10  1.6082432040434758E-10
  5.2516957768571739E+00  1.6184434969185955E-10  1.5800124398755289E-10
  5.3040168515438646E+00  1.5902557466413572E-10  1.5523043391258112E-10
  5.3568591854528496E+00  1.5625899728535001E-10  1.5251096784123309E-10
  5.4102279717338924E+00  1.5354369359129091E-10  1.4984193759636979E-10
  5.4641284552745653E+00  1.5087875397049896E-10  1.4722244902616623E-10
  5.5185659332156778E+00  1.4826328295247369E-10  1.4465162180133451E-10
  5.5735457554718675E+00  1.4569636543372651E-10  1.4212855654586755E-10
  5.6290733252573828E+00  1.4317700413658928E-10  1.3965227390387645E-10
  5.6851540996170664E+00  1.4070420564995112E-10  1.3722179840273140E-10
  5.7417935899626817E+00  1.3827699994257631E-10  1.3483617748707153E-10
  5.7989973626145250E+00  1.3589443975494437E-10  1.3249448092390333E-10
  5.8567710393484900E+00  1.3355560000918328E-10  1.3019580022535140E-10
  5.9151202979485342E+00  1.3125957723652873E-10  1.2793924808850427E-10
  5.9740508727646775E+00  1.2900548902170047E-10  1.2572395785176691E-10
  6.0335685552765659E+00  1.2679247346361758E-10  1.2354908296714973E-10
  6.0936791946626139E+00  1.2461968865189293E-10  1.2141379648795373E-10
  6.1543886983748539E+00  1.2248631215856812E-10  1.1931729057132355E-10
  6.2157030327195013E+00  1.2039154054459074E-10  1.1725877599518248E-10
  6.2776282234432887E+00  1.1833460030037651E-10  1.1523749278650352E-10
  6.3401703563256726E+00  1.1631482942800901E-10  1.1325278963846907E-10
  6.4033355777768959E+00  1.1433162508951092E-10  1.1130407294190186E-10
  6.4671300954420641E+00  1.1238439195882081E-10  1.0939075643610564E-10
  6.5315601788111861E+00  1.1047254167236661E-10  1.0751226067458865E-10
  6.5966321598353206E+00  1.0859549285379364E-10  1.0566801305153351E-10
  6.6623524335488735E+00  1.0675267113443319E-10  1.0385744782398612E-10
  6.7287274586980592E+00  1.0494350916961681E-10  1.0208000612987282E-10
  6.7957637583756458E+00  1.0316744665094727E-10  1.0033513600195539E-10
  6.8634679206620337E+00  1.0142393031463663E-10  9.8622292377834296E-11
  6.9318465992726868E+00  9.9712413946025439E-11  9.6940937106111655E-11
  7.0009065142120628E+00  9.8032358380392279E-11  9.5290538948828354E-11
  7.0706544524339927E+00  9.6383229563452715E-11  9.3670571702223502E-11
  7.1410972685087213E+00  9.4764434210981829E-11  9.2080451590878869E-11
  7.2122418852965131E+00  9.3175306082183793E-11  9.0519523878554607E-11
  7.2840952946280186E+00  9.1615190330263574E-11  8.8987145059424184E-11
  7.3566645579914196E+00  9.0083449196852127E-11  8.7482688408871362E-11
  7.4299568072263780E+00  8.8579461515544244E-11  8.6005543496490361E-11
  7.5039792452249463E+00  8.7102622231877857E-11  8.4555115715174135E-11
  7.5787391466394469E+00  8.5652341939131854E-11  8.3130825825686252E-11
  7.6542438585973711E+00  8.4228046429351702E-11  8.1732109516133607E-11
  7.7305008014234620E+00  8.2829176259026571E-11  8.0358416975781333E-11
  7.8075174693689204E+00  8.1455186328875801E-11  7.9009212482676035E-11
  7.8853014313479504E+00  8.0105545477216873E-11  7.7683974004562964E-11
  7.9638603316815733E+00  7.8779736111630364E-11  7.6382192836795719E-11
  8.0432018908488896E+00  7.7477275336440383E-11  7.5103394144834167E-11
  8.1233339062458434E+00  7.6197760570237175E-11  7.3847181354528800E-11
  8.2042642529514875E+00  7.4940809646100317E-11  7.2613177822239424E-11
  8.2860008845019308E+00  7.3706045720986966E-11  7.1401012135778010E-11
  8.3685518336720008E+00  7.2493097238181989E-11  7.0210318078259259E-11
  8.4519252132646407E+00  7.1301597889501343E-11  6.9040734591660358E-11
  8.5361292169082379E+00  7.0131186577218025E-11  6.7891905740060133E-11
  8.6211721198618338E+00  6.8981507375687535E-11  6.6763480672535413E-11
  8.7070622798284187E+00  6.7852209492649559E-11  6.5655113585694046E-11
  8.7938081377762689E+00  6.6742947230191991E-11  6.4566463685829699E-11
  8.8814182187684949E+00  6.5653379945361063E-11  6.3497195150685673E-11
  8.9699011328008851E+00  6.4583172010457896E-11  6.2446977090863691E-11
  9.0592655756480234E+00  6.3531991834921503E-11  6.1415482579430179E-11
  9.1495203297178929E+00  6.2499498041554063E-11  6.0402375122910716E-11
  9.2406742649150004E+00  6.1485345556265669E-11  5.9407314663964829E-11
  9.3327363395120386E+00  6.0489195741194060E-11  5.8429967477880204E-11
  9.4257156010303085E+00  5.9510716392426215E-11  5.7470006169521290E-11
  9.5196211871288465E+00  5.8549581613406231E-11  5.6527109549296798E-11
  9.6144623265024691E+00  5.7605471691962585E-11  5.5600962512631052E-11
  9.7102483397887038E+00  5.6678072980794324E-11  5.4691255922781968E-11
  9.8069886404838087E+00  5.5767077781257746E-11  5.3797686496853298E-11
  9.9046927358678989E+00  5.4872184230308933E-11  5.2919956694858188E-11
  1.0003370227939268E+01  5.3993096190461925E-11  5.2057774611699133E-11
  1.0103030814358046E+01  5.3129523142630660E-11  5.1210853871935799E-11
  1.0203684289399263E+01  5.2281179344025194E-11  5.0378912824506483E-11
  1.0305340544915367E+01  5.1447776887850455E-11  4.9561667997895880E-11
  1.0408009571308396E+01  5.0629030614760792E-11  4.8758838824554627E-11
  1.0511701458511746E+01  4.9824661343381385E-11  4.7970150617363723E-11
  1.0616426396981835E+01  4.9034395538224952E-11  4.7195334241506318E-11
  1.0722194678699527E+01  4.8257965186841306E-11  4.6434125993923950E-11
  1.0829016698181617E+01  4.7495107680615941E-11  4.5686267486326394E-11
  1.0936902953502377E+01  4.6745565699066697E-11  4.4951505531609373E-11
  1.1045864047325244E+01  4.6009087097493304E-11  4.4229592033537278E-11
  1.1155910687944813E+01  4.5285424797842217E-11  4.3520283879556064E-11
  1.1267053690339234E+01  4.4574336682655328E-11  4.2823342836608427E-11
  1.1379303977233036E+01  4.3875585491978140E-11  4.2138535449828944E-11
  1.1492672580170588E+01  4.3188938817792399E-11  4.1465633034626723E-11
  1.1607170640600243E+01  4.2514174524079434E-11  4.0804416784387219E-11
  1.1722809410969274E+01  4.1851081172509221E-11  4.0154678059921530E-11
  1.1839600255829717E+01  4.1199451166213857E-11  3.9516211980977677E-11
  1.1957554652955231E+01  4.0559080672196019E-11  3.8888817377272266E-11
  1.2076684194469127E+01  3.9929769551914719E-11  3.8272296720302158E-11
  1.2197000587983553E+01  3.9311321294107115E-11  3.7666456057315435E-11
  1.2318515657750096E+01  3.8703542949722996E-11  3.7071104947321784E-11
  1.2441241345821847E+01  3.8106245068857986E-11  3.6486056399030376E-11
  1.2565189713226983E+01  3.7519241639575738E-11  3.5911126810609121E-11
  1.2690372941154093E+01  3.6942350028518321E-11  3.5346135911166462E-11
  1.2816803332149322E+01  3.6375390923207327E-11  3.4790906703861544E-11
  1.2944493311325402E+01  3.5818188276172891E-11  3.4245265410751802E-11
  1.3073455427582740E+01  3.5270568701478469E-11  3.3709040932072963E-11
  1.3203702354842680E+01  3.4732364536757526E-11  3.3182067946915542E-11
  1.3335246893293073E+01  3.4203413521896161E-11  3.2664186453129035E-11
  1.3468101970646201E+01  3.3683556053454826E-11  3.2155239066884254E-11
  1.3602280643409268E+01  3.3172635131170918E-11  3.1655070970537903E-11
  1.3737796098167586E+01  3.2670496318820602E-11  3.1163529874275637E-11
  1.3874661652880450E+01  3.2176987706892290E-11  3.0680465979489942E-11
  1.4012890758189993E+01  3.1691959876931109E-11  3.0205731943754352E-11
  1.4152496998743100E+01  3.1215265867421214E-11  2.9739182847265422E-11
  1.4293494094526425E+01  3.0746761141084767E-11  2.9280676160633186E-11
  1.4435895902214726E+01  3.0286303553481862E-11  2.8830071713907664E-11
  1.4579716416532680E+01  2.9833753322804943E-11  2.8387231666737471E-11
  1.4724969771630239E+01  2.9388972589825972E-11  2.7952020077494219E-11
  1.4871670242471637E+01  2.8951814566790907E-11  2.7524292420787984E-11
  1.5019832246238311E+01  2.8522124240648021E-11  2.7103896318089328E-11
  1.5169470343745797E+01  2.8099749814164020E-11  2.6690682564922883E-11
  1.5320599240874648E+01  2.7684543078918795E-11  2.6284505486449404E-11
  1.5473233790015708E+01  2.7276359318003063E-11  2.5885222841821016E-11
  1.5627388991529777E+01  2.6875057212373086E-11  2.5492695732106698E-11
  1.5783079995221751E+01  2.6480498750693634E-11  2.5106788511623001E-11
  1.5940322101829494E+01  2.6092549142507705E-11  2.4727368702511195E-11
  1.6099130764527544E+01  2.5711076734580326E-11  2.4354306912411503E-11
  1.6259521590445818E+01  2.5335952930270749E-11  2.3987476755091302E-11
  1.6421510342203387E+01  2.4967052111794410E-11  2.3626754773891689E-11
  1.6585112939457566E+01  2.4604251587619277E-11  2.3272020391531597E-11
  1.6750345460468495E+01  2.4247443143721921E-11  2.2923167015712247E-11
  1.6917224143679178E+01  2.3896547112912467E-11  2.2580115464395335E-11
  1.7085765389311380E+01  2.3551487767979436E-11  2.2242790343773558E-11
  1.7255985760977378E+01  2.3212189555977577E-11  2.1911116444430956E-11
  1.7427901987307777E+01  2.2878577135086842E-11  2.1585018777556067E-11
  1.7601530963595497E+01  2.2550575410235709E-11  2.1264422609911317E-11
  1.7776889753456217E+01  2.2228109567490863E-11  2.0949253497561046E-11
  1.7953995590505343E+01  2.1911105107216983E-11  2.0639437318362722E-11
  1.8132865880051607E+01  2.1599487876013491E-11  2.0334900303228545E-11
  1.8313518200807636E+01  2.1293184097435912E-11  2.0035569066165654E-11
  1.8495970306617529E+01  2.0992120401512858E-11  1.9741370633106357E-11
  1.8680240128201614E+01  2.0696223853609842E-11  1.9452232470026581E-11
  1.8866345774918607E+01  2.0405416252176673E-11  1.9168077033055932E-11
  1.9054305536545375E+01  2.0119587230519250E-11  1.8888796150001994E-11
  1.9244137885074384E+01  1.9838617577842132E-11  1.8614273314669740E-11
  1.9435861476528963E+01  1.9562391484302198E-11  1.8344395359071716E-11
  1.9629495152796888E+01  1.9290796449663500E-11  1.8079052363247948E-11
  1.9825057943482019E+01  1.9023723179931671E-11  1.7818137553721682E-11
  2.0022569067774455E+01  1.8761065487855860E-11  1.7561547205742346E-11
  2.0222047936339326E+01  1.8502720197135222E-11  1.7309180549154363E-11
  2.0423514153224463E+01  1.8248587050173403E-11  1.7060939677739035E-11
  2.0626987517786912E+01  1.7998568619231659E-11  1.6816729461882563E-11
  2.0832488026638810E+01  1.7752570220837940E-11  1.6576457464430047E-11
  2.1040035875612570E+01  1.7510499833315246E-11  1.6340033859591496E-11
  2.1249651461745668E+01  1.7272269346471450E-11  1.6107372609964307E-11
  2.1461355385285092E+01  1.7037814669162518E-11  1.5878410473445613E-11
  2.1675168451711997E+01  1.6807090472696285E-11  1.5653101996486224E-11
  2.1891111673786313E+01  1.6580052049605178E-11  1.5431402326276960E-11
  2.2109206273611800E+01  1.6356654765581331E-11  1.5213266691817536E-11
  2.2329473684721680E+01  1.6136854081398303E-11  1.4998650425321158E-11
  2.2551935554185107E+01  1.5920605574071215E-11  1.4787508982854515E-11
  2.2776613744734458E+01  1.5707864957263143E-11  1.4579797964220606E-11
  2.3003530336913997E+01  1.5498588100945232E-11  1.4375473132092943E-11
  2.3232707631249852E+01  1.5292731050320395E-11  1.4174490430409980E-11
  2.3464168150441651E+01  1.5090250044019536E-11  1.3976806002040003E-11
  2.3697934641575859E+01  1.4891101531581309E-11  1.3782376205726785E-11
  2.3934030078361452E+01  1.4695242077274497E-11  1.3591157529578070E-11
  2.4172477663387571E+01  1.4502620550395231E-11  1.3403099326631237E-11
  2.4413300830403792E+01  1.4313172622439758E-11  1.3218138659817028E-11
  2.4656523246623138E+01  1.4126833935030755E-11  1.3036212628800421E-11
  2.4902168815048032E+01  1.3943541617546426E-11  1.2857259794631468E-11
  2.5150261676819323E+01  1.3763234248854011E-11  1.2681220142178490E-11
  2.5400826213588832E+01  1.3585851820200246E-11  1.2508035043693393E-11
  2.5653887049915507E+01  1.3411335699219013E-11  1.2337647223469888E-11
  2.5909469055685438E+01  1.3239628595017544E-11  1.2170000723557106E-11
  2.6167597348555862E+01  1.3070674524304240E-11  1.2005040870491980E-11
  2.6428297296423807E+01  1.2904418778522438E-11  1.1842714243015320E-11
  2.6691594519919061E+01  1.2740807891955976E-11  1.1682968640738522E-11
  2.6957514894922067E+01  1.2579789612721889E-11  1.1525753055293880E-11
  2.7226084555106912E+01  1.2421314093825816E-11  1.1371018737402597E-11
  2.7497329894509715E+01  1.2265337315941355E-11  1.1218722340626949E-11
  2.7771277570122447E+01  1.2111817377932291E-11  1.1068822527568775E-11
  2.8047954504512703E+01  1.1960713121703967E-11  1.0921278692383228E-11
  2.8327387888469620E+01  1.1811984117926158E-11  1.0776050946723651E-11
  2.8609605183676027E+01  1.1665590652795466E-11  1.0633100106673822E-11
  2.8894634125407222E+01  1.1521493715086923E-11  1.0492387679961862E-11
  2.9182502725256825E+01  1.1379654983486358E-11  1.0353875853447257E-11
  2.9473239273889590E+01  1.1240036814195542E-11  1.0217527480873418E-11
  2.9766872343821664E+01  1.1102602228802350E-11  1.0083306070877927E-11
  3.0063430792228630E+01  1.0967314902408179E-11  9.9511757752531799E-12
  3.0362943763781537E+01  1.0834139152005943E-11  9.8211013774503027E-12
  3.0665440693511027E+01  1.0703039923919121E-11  9.6930482911090585E-12
  3.0970951309700137E+01  1.0573983303033610E-11  9.5669830742763315E-12
  3.1279505636805947E+01  1.0446936400375276E-11  9.4428732841368193E-12
  3.1591133998410236E+01  1.0321866873700710E-11  9.3206870162449829E-12
  3.1905867020199466E+01  1.0198742911578750E-11  9.2003928893781013E-12
  3.2223735632974744E+01  1.0077533225407051E-11  9.0819600376130994E-12
  3.2544771075691500E+01  9.9582070415518632E-12  8.9653581025218764E-12
  3.2869004898529482E+01  9.8407340936087993E-12  8.8505572254828293E-12
  3.3196468965993468E+01  9.7250846147823470E-12  8.7375280401062784E-12
  3.3527195460044794E+01  9.6112293303819610E-12  8.6262416647719420E-12
  3.3861216883264035E+01  9.4991394504329066E-12  8.5166696952762883E-12
  3.4198566062045217E+01  9.3887866623996653E-12  8.4087841975879648E-12
  3.4539276149822008E+01  9.2801430771920111E-12  8.3025576570406378E-12
  3.4883380630325739E+01  9.1731785545053720E-12  8.1979605234199132E-12
  3.5230913320876155E+01  9.0678594314432428E-12  8.0949600607433443E-12
  3.5581908375704884E+01  8.9641524785528661E-12  7.9935239806247077E-12
  3.5936400289311948E+01  8.8620252422469606E-12  7.8936207550787751E-12
  3.6294423899855722E+01  8.7614460245494428E-12  7.7952195966906117E-12
  3.6656014392576736E+01  8.6623838634437936E-12  7.6982904393735033E-12
  3.7021207303255608E+01  8.5648085138047454E-12  7.6028039196962994E-12
  3.7390038521705257E+01  8.4686904288943487E-12  7.5087313587618844E-12
  3.7762544295298063E+01  8.3740007424041217E-12  7.4160447446185115E-12
  3.8138761232528203E+01  8.2807112510259250E-12  7.3247167151870175E-12
  3.8518726306609331E+01  8.1887943975344492E-12  7.2347205416872040E-12
  3.8902476859108063E+01  8.0982232550811201E-12  7.1460301131638460E-12
  3.9290050603613999E+01  8.0089725125873009E-12  7.0586208183451580E-12
  3.9681485629445952E+01  7.9210209318696872E-12  6.9724717551651095E-12
  4.0076820405395111E+01  7.8343484505892466E-12  6.8875631127954230E-12
  4.0476093783505846E+01  7.7489353391235573E-12  6.8038754073839243E-12
  4.0879345002893835E+01  7.6647621950792772E-12  6.7213894766129339E-12
  4.1286613693602206E+01  7.5818099379149389E-12  6.6400864743633470E-12
  4.1697939880496470E+01  7.5000598036676079E-12  6.5599478654782312E-12
  4.2113363987197928E+01  7.4194933397811871E-12  6.4809554206237861E-12
  4.2532926840056142E+01  7.3400924000340992E-12  6.4030912112452848E-12
  4.2956669672161695E+01  7.2618391395638455E-12  6.3263376046156869E-12
  4.3384634127397867E+01  7.1847160099866685E-12  6.2506772589750779E-12
  4.3816862264533491E+01  7.1087057546096622E-12  6.1760931187583059E-12
  4.4253396561356595E+01  7.0337911263658649E-12  6.1025681680450312E-12
  4.4694279918848402E+01  6.9599527417512148E-12  6.0300835384497182E-12
  4.5139555665399975E+01  6.8871702951047320E-12  5.9586195806137081E-12
  4.5589267561070159E+01  6.8154239079595805E-12  5.8881570650998583E-12
  4.6043459801886051E+01  6.7446941351521068E-12  5.8186771870923898E-12
  4.6502177024186707E+01  6.6749619543256881E-12  5.7501615561230743E-12
  4.6965464309009661E+01  6.6062087557294997E-12  5.6825921860835913E-12
  4.7433367186521195E+01  6.5384163323031463E-12  5.6159514855153677E-12
  4.7905931640491197E+01  6.4715668700385936E-12  5.5502222481681530E-12
  4.8383204112812074E+01  6.4056429386107422E-12  5.4853876438193196E-12
  4.8865231508062806E+01  6.3406274822689502E-12  5.4214312093456277E-12
  4.9352061198118783E+01  6.2765038109812285E-12  5.3583368400399047E-12
  4.9843741026807244E+01  6.2132556389004350E-12  5.2960888191475328E-12
  5.0340319314609012E+01  6.1508680144821696E-12  5.2346725835814296E-12
  5.0841844863407573E+01  6.0893272844799118E-12  5.1740746983806105E-12
  5.1348366961284981E+01  6.0286201024612936E-12  5.1142820223661388E-12
  5.1859935387365503E+01  5.9687333712149399E-12  5.0552816578117741E-12
  5.2376600416708314E+01  5.9096542375660832E-12  4.9970609453310051E-12
  5.2898412825247647E+01  5.8513700873250052E-12  4.9396074588921422E-12
  5.3425423894783187E+01  5.7938685403642132E-12  4.8829090009573695E-12
  5.3957685418020162E+01  5.7371374458209968E-12  4.8269535977424668E-12
  5.4495249703658679E+01  5.6811648774219481E-12  4.7717294945938052E-12
  5.5038169581534987E+01  5.6259391289259826E-12  4.7172251514790265E-12
  5.5586498407813210E+01  5.5714487096826532E-12  4.6634292385885123E-12
