 #p(MeV) \t \delta f_\\nu \t \delta f_\\nubar
  5.3985839531830006E-03  2.6826319758425610E-01  1.6400687315416213E-05
  5.4523684308485920E-03  2.6776660650832379E-01  1.6264059666809944E-05
  5.5066887471827740E-03  2.6734029771017892E-01  1.6128400163080710E-05
  5.5615502405859827E-03  2.6702707026992201E-01  1.5993706595241787E-05
  5.6169583026435309E-03  2.6668536486492167E-01  1.5859977233911863E-05
  5.6729183786554957E-03  2.6614846084032007E-01  1.5727210711583700E-05
  5.7294359681718402E-03  2.6561118012356399E-01  1.5595405880164604E-05
  5.7865166255329009E-03  2.6506208146467386E-01  1.5464561819909090E-05
  5.8441659604152544E-03  2.6461053842206184E-01  1.5334677925738732E-05
  5.9023896383829976E-03  2.6416860178801410E-01  1.5205753578126000E-05
  5.9611933814445574E-03  2.6372883463548563E-01  1.5077787469740130E-05
  6.0205829686150120E-03  2.6324612064848096E-01  1.4950777013742913E-05
  6.0805642364840382E-03  2.6279302081693051E-01  1.4824718076643625E-05
  6.1411430797895222E-03  2.6230146233105406E-01  1.4699605021429262E-05
  6.2023254519968452E-03  2.6183307393564798E-01  1.4575430927881874E-05
  6.2641173658839989E-03  2.6142444236346724E-01  1.4452187869714052E-05
  6.3265248941324747E-03  2.6097616427396197E-01  1.4329867175861863E-05
  6.3895541699240718E-03  2.6057085741520497E-01  1.4208459634249271E-05
  6.4532113875436564E-03  2.6012462843128004E-01  1.4087955727186208E-05
  6.5175028029878911E-03  2.5968759018084825E-01  1.3968345790014206E-05
  6.5824347345800737E-03  2.5925023761300142E-01  1.3849619809965485E-05
  6.6480135635910596E-03  2.5876795195985136E-01  1.3731767327754868E-05
  6.7142457348663949E-03  2.5825042061066883E-01  1.3614777797280064E-05
  6.7811377574597091E-03  2.5773203533477046E-01  1.3498641166693406E-05
  6.8486962052723673E-03  2.5725221374426721E-01  1.3383348339865030E-05
  6.9169277176995680E-03  2.5683937597802808E-01  1.3268891371003991E-05
  6.9858390002828065E-03  2.5642316860095177E-01  1.3155263433038923E-05
  7.0554368253688791E-03  2.5601888036610182E-01  1.3042458663907298E-05
  7.1257280327754633E-03  2.5551522365547552E-01  1.2930471974224712E-05
  7.1967195304632808E-03  2.5498545413993784E-01  1.2819298872378857E-05
  7.2684182952150100E-03  2.5451117317394423E-01  1.2708935277211370E-05
  7.3408313733209227E-03  2.5400742033934565E-01  1.2599377297057203E-05
  7.4139658812713725E-03  2.5355836516271768E-01  1.2490621306688822E-05
  7.4878290064561903E-03  2.5312745052141500E-01  1.2382664232825014E-05
  7.5624280078710037E-03  2.5268954675145111E-01  1.2275503614286357E-05
  7.6377702168306649E-03  2.5222537948250923E-01  1.2169137360106208E-05
  7.7138630376897060E-03  2.5184629023890825E-01  1.2063563397985033E-05
  7.7907139485700336E-03  2.5141826140540968E-01  1.1958779398646174E-05
  7.8683305020958577E-03  2.5098448526466016E-01  1.1854782642257399E-05
  7.9467203261359108E-03  2.5051785592343456E-01  1.1751569998165078E-05
  8.0258911245531025E-03  2.5002462844421580E-01  1.1649137968847692E-05
  8.1058506779616377E-03  2.4957735919556201E-01  1.1547482755775594E-05
  8.1866068444916371E-03  2.4913079914357630E-01  1.1446600327688090E-05
  8.2681675605614374E-03  2.4862148906748077E-01  1.1346486501975803E-05
  8.3505408416575232E-03  2.4819077542314785E-01  1.1247136988462707E-05
  8.4337347831222910E-03  2.4774347363830720E-01  1.1148547446958295E-05
  8.5177575609496001E-03  2.4727625386626179E-01  1.1050713700555057E-05
  8.6026174325882880E-03  2.4684965522323454E-01  1.0953632053554424E-05
  8.6883227377537054E-03  2.4640455362120572E-01  1.0857299548258971E-05
  8.7748818992472756E-03  2.4594120374133402E-01  1.0761714061527988E-05
  8.8623034237842787E-03  2.4546031901653914E-01  1.0666874248180996E-05
  8.9505959028298582E-03  2.4501728786173849E-01  1.0572779396602070E-05
  9.0397680134433524E-03  2.4459914747013961E-01  1.0479429259373267E-05
  9.1298285191310554E-03  2.4419942131502018E-01  1.0386823897919293E-05
  9.2207862707074373E-03  2.4374484812042829E-01  1.0294963556714037E-05
  9.3126502071650061E-03  2.4332378925888509E-01  1.0203848578944290E-05
  9.4054293565527664E-03  2.4284403016257508E-01  1.0113479315785416E-05
  9.4991328368634765E-03  2.4234057951278257E-01  1.0023855848847344E-05
  9.5937698569297358E-03  2.4185860442799792E-01  9.9349774825710815E-06
  9.6893497173289860E-03  2.4138704823772525E-01  9.8468422087044952E-06
  9.7858818112975358E-03  2.4105554566006712E-01  9.7594463831254493E-06
  9.8833756256537109E-03  2.4061966432907073E-01  9.6727847035971058E-06
  9.9818407417301552E-03  2.4016536735996771E-01  9.5868504218829566E-06
  1.0081286836315487E-02  2.3963761201393463E-01  9.5016356653566973E-06
  1.0181723682605247E-02  2.3919931380917589E-01  9.4171317657804595E-06
  1.0283161151162427E-02  2.3866441943197844E-01  9.3333295405482752E-06
  1.0385609210887476E-02  2.3825854664919457E-01  9.2502195120747121E-06
  1.0489077929998007E-02  2.3781425267460510E-01  9.1677920734137977E-06
  1.0593577477018298E-02  2.3734033071904248E-01  9.0860376480940089E-06
  1.0699118121778572E-02  2.3692425613429516E-01  9.0049470102634281E-06
  1.0805710236424303E-02  2.3651539189830206E-01  8.9245117655971202E-06
  1.0913364296435571E-02  2.3614368762059490E-01  8.8447247691243654E-06
  1.1022090881656496E-02  2.3568734265347496E-01  8.7655802997373907E-06
  1.1131900677335056E-02  2.3524421649250030E-01  8.6870739715623858E-06
  1.1242804475173130E-02  2.3477699151686304E-01  8.6092024796243640E-06
  1.1354813174387123E-02  2.3432878800808329E-01  8.5319632959428707E-06
  1.1467937782779056E-02  2.3389330029460156E-01  8.4553543948885603E-06
  1.1582189417818384E-02  2.3342530918414897E-01  8.3793740404072327E-06
  1.1697579307734613E-02  2.3301986242269640E-01  8.3040206353996327E-06
  1.1814118792620719E-02  2.3257715044150920E-01  8.2292926132931762E-06
  1.1931819325547632E-02  2.3213750258639940E-01  8.1551883281546516E-06
  1.2050692473689827E-02  2.3166198698000112E-01  8.0817058135823249E-06
  1.2170749919462048E-02  2.3121330951637659E-01  8.0088424237291485E-06
  1.2292003461667474E-02  2.3075313306619652E-01  7.9365946082724468E-06
  1.2414465016657205E-02  2.3031799382826568E-01  7.8649579685351894E-06
  1.2538146619501407E-02  2.2989342021419945E-01  7.7939275340741723E-06
  1.2663060425172038E-02  2.2948797173203639E-01  7.7234981033529030E-06
  1.2789218709737402E-02  2.2910356496436513E-01  7.6536645220306380E-06
  1.2916633871568621E-02  2.2866983676082178E-01  7.5844218533671517E-06
  1.3045318432558066E-02  2.2822645342996692E-01  7.5157654516070976E-06
  1.3175285039349970E-02  2.2776101094962473E-01  7.4476909696557031E-06
  1.3306546464583324E-02  2.2725886226332942E-01  7.3801943367579249E-06
  1.3439115608147079E-02  2.2679256729079680E-01  7.3132717434569764E-06
  1.3573005498447947E-02  2.2630359264548941E-01  7.2469197202876367E-06
  1.3708229293690730E-02  2.2588526515380133E-01  7.1811353182129807E-06
  1.3844800283171522E-02  2.2547254957802496E-01  7.1159161659151234E-06
  1.3982731888583674E-02  2.2503239922639823E-01  7.0512602528757422E-06
  1.4122037665336861E-02  2.2468491662304260E-01  6.9871655183593125E-06
  1.4262731303889267E-02  2.2425016674037579E-01  6.9236294312732450E-06
  1.4404826631093002E-02  2.2382674334382890E-01  6.8606487114238851E-06
  1.4548337611552963E-02  2.2339947136156046E-01  6.7982192329264134E-06
  1.4693278348999254E-02  2.2295979720618961E-01  6.7363360674364996E-06
  1.4839663087673196E-02  2.2249773729931135E-01  6.6749936060394086E-06
  1.4987506213727258E-02  2.2203846885602826E-01  6.6141857065890214E-06
  1.5136822256638810E-02  2.2163790123138891E-01  6.5539058286310273E-06
  1.5287625890638095E-02  2.2120435212888759E-01  6.4941471020785295E-06
  1.5439931936150300E-02  2.2074998749985997E-01  6.4349023068389740E-06
  1.5593755361252074E-02  2.2028744810464190E-01  6.3761639284472686E-06
  1.5749111283142568E-02  2.1984630956396420E-01  6.3179244480201423E-06
  1.5906014969629033E-02  2.1944462384385549E-01  6.2601768148024440E-06
  1.6064481840627334E-02  2.1901711239571672E-01  6.2029149228087725E-06
  1.6224527469677355E-02  2.1863846414193186E-01  6.1461339240018602E-06
  1.6386167585473486E-02  2.1823920350875636E-01  6.0898303131540379E-06
  1.6549418073410399E-02  2.1781724280856329E-01  6.0340018315198679E-06
  1.6714294977144207E-02  2.1732573765125521E-01  5.9786472692538245E-06
  1.6880814500169181E-02  2.1680340304388135E-01  5.9237662355549950E-06
  1.7048993007410147E-02  2.1631253018366900E-01  5.8693589423160386E-06
  1.7218847026830773E-02  2.1586764909597023E-01  5.8154260409173035E-06
  1.7390393251057925E-02  2.1547810843026580E-01  5.7619685595802134E-06
  1.7563648539022078E-02  2.1512348374795046E-01  5.7089878687307340E-06
  1.7738629917614206E-02  2.1475494867172146E-01  5.6564855239372759E-06
  1.7915354583359116E-02  2.1434869182483252E-01  5.6044629487525322E-06
  1.8093839904105440E-02  2.1393348525661643E-01  5.5529210474414037E-06
  1.8274103420732487E-02  2.1345170200992666E-01  5.5018598804224686E-06
  1.8456162848874112E-02  2.1299094192919218E-01  5.4512785006103281E-06
  1.8640036080659741E-02  2.1258286609388277E-01  5.4011749505464811E-06
  1.8825741186472712E-02  2.1216266371303541E-01  5.3515463694584010E-06
  1.9013296416726198E-02  2.1173130164842843E-01  5.3023891535628409E-06
  1.9202720203656796E-02  2.1130977831747588E-01  5.2536991252727839E-06
  1.9394031163135948E-02  2.1086379771122785E-01  5.2054716795375041E-06
  1.9587248096499445E-02  2.1044190548901623E-01  5.1577018505241536E-06
  1.9782389992395212E-02  2.1005212547027119E-01  5.1103842788262012E-06
  1.9979476028649346E-02  2.0962679886963301E-01  5.0635131753184123E-06
  2.0178525574150900E-02  2.0920528991246340E-01  5.0170823799379826E-06
  2.0379558190755397E-02  2.0875413586812611E-01  4.9710855341229815E-06
  2.0582593635207282E-02  2.0829816230027220E-01  4.9255163137573481E-06
  2.0787651861081502E-02  2.0790076652436038E-01  4.8803686360554536E-06
  2.0994753020744522E-02  2.0746860831699887E-01  4.8356367906015702E-06
  2.1203917467334837E-02  2.0704005925692770E-01  4.7913154913706326E-06
  2.1415165756763124E-02  2.0662067291766997E-01  4.7473998677301637E-06
  2.1628518649732476E-02  2.0619022854077626E-01  4.7038854207735851E-06
  2.1843997113778681E-02  2.0580365682237520E-01  4.6607679672283972E-06
  2.2061622325330793E-02  2.0542263459907456E-01  4.6180436057200061E-06
  2.2281415671792287E-02  2.0500029190031591E-01  4.5757087517690714E-06
  2.2503398753642975E-02  2.0455395194807496E-01  4.5337602076501425E-06
  2.2727593386561780E-02  2.0410003421688580E-01  4.4921951857634492E-06
  2.2954021603570695E-02  2.0364333275703819E-01  4.4510112391691872E-06
  2.3182705657200126E-02  2.0321728051629503E-01  4.4102061131494896E-06
  2.3413668021675819E-02  2.0277631173793204E-01  4.3697775747344176E-06
  2.3646931395127468E-02  2.0236235532938981E-01  4.3297232749702404E-06
  2.3882518701819452E-02  2.0196990133702961E-01  4.2900406660888134E-06
  2.4120453094403780E-02  2.0156273220087881E-01  4.2507269730054974E-06
  2.4360757956195363E-02  2.0118506742170464E-01  4.2117792035897536E-06
  2.4603456903470100E-02  2.0077928827411945E-01  4.1731941794029661E-06
  2.4848573787785804E-02  2.0039687014143837E-01  4.1349685724612596E-06
  2.5096132698326223E-02  1.9999636290119480E-01  4.0970989235702358E-06
  2.5346157964268420E-02  1.9955897889228036E-01  4.0595816499581297E-06
  2.5598674157173772E-02  1.9912600371736616E-01  4.0224130856342555E-06
  2.5853706093402807E-02  1.9866110526707839E-01  3.9855895808666988E-06
  2.6111278836554008E-02  1.9822597745468751E-01  3.9491076467318577E-06
  2.6371417699926982E-02  1.9778394678073685E-01  3.9129640992850308E-06
  2.6634148249010219E-02  1.9738382129335921E-01  3.8771561568240196E-06
  2.6899496303993482E-02  1.9698975590248655E-01  3.8416814744629225E-06
  2.7167487942305356E-02  1.9655817490982638E-01  3.8065381226682598E-06
  2.7438149501176096E-02  1.9615586876832505E-01  3.7717245291689197E-06
  2.7711507580225909E-02  1.9570161778720299E-01  3.7372394065542691E-06
  2.7987589044078984E-02  1.9528836687880702E-01  3.7030816779696305E-06
  2.8266421025003801E-02  1.9484503784731391E-01  3.6692504119745220E-06
  2.8548030925579518E-02  1.9442752708130998E-01  3.6357447788564280E-06
  2.8832446421388963E-02  1.9406215554094264E-01  3.6025640297078776E-06
  2.9119695463738514E-02  1.9371377097885184E-01  3.5697074895765366E-06
  2.9409806282405113E-02  1.9331856317753326E-01  3.5371745499678746E-06
  2.9702807388410472E-02  1.9293826838558789E-01  3.5049646521565795E-06
  2.9998727576823092E-02  1.9250861926497459E-01  3.4730772674350557E-06
  3.0297595929588160E-02  1.9207904524814931E-01  3.4415118771958965E-06
  3.0599441818385600E-02  1.9163473792096711E-01  3.4102679548213520E-06
  3.0904294907516523E-02  1.9120327509087906E-01  3.3793449524283839E-06
  3.1212185156818669E-02  1.9077668825884106E-01  3.3487422922302133E-06
  3.1523142824610696E-02  1.9035834396287774E-01  3.3184593611438723E-06
  3.1837198470665788E-02  1.8994850488574291E-01  3.2884955065142036E-06
  3.2154382959215015E-02  1.8953253909525836E-01  3.2588500686613900E-06
  3.2474727461980622E-02  1.8912657737579261E-01  3.2295225655483803E-06
  3.2798263461239333E-02  1.8874376676529306E-01  3.2005131160391192E-06
  3.3125022752916372E-02  1.8834707639778758E-01  3.1718230592368776E-06
  3.3455037449710318E-02  1.8793245300517436E-01  3.1434556106480236E-06
  3.3788339984248968E-02  1.8754348489164757E-01  3.1154163598395532E-06
  3.4124963112276585E-02  1.8713568083276830E-01  3.0877134783765066E-06
  3.4464939915873231E-02  1.8672459435938549E-01  3.0603576192856128E-06
  3.4808303806705812E-02  1.8629829741433354E-01  3.0333615823460666E-06
  3.5155088529311651E-02  1.8589578520506930E-01  3.0067398578533175E-06
  3.5505328164414804E-02  1.8547610711655088E-01  2.9805081505084271E-06
  3.5859057132275454E-02  1.8506598302590463E-01  2.9546829507578108E-06
  3.6216310196072472E-02  1.8460689673193426E-01  2.9292811770683046E-06
  3.6577122465319897E-02  1.8422804163490442E-01  2.9043198271867982E-06
  3.6941529399317392E-02  1.8384158914497567E-01  2.8798155679099867E-06
  3.7309566810635048E-02  1.8343876256455396E-01  2.8557842461189739E-06
  3.7681270868632752E-02  1.8304460291119004E-01  2.8322403677158065E-06
  3.8056678103015031E-02  1.8266777483675681E-01  2.8091966456804535E-06
  3.8435825407420923E-02  1.8227118802580305E-01  2.7866637480368385E-06
  3.8818750043049709E-02  1.8186909498790149E-01  2.7646502717513073E-06
  3.9205489642322872E-02  1.8140381055343144E-01  2.7431629113838657E-06
  3.9596082212582484E-02  1.8100796158677629E-01  2.7222067549874487E-06
  3.9990566139826399E-02  1.8059736830285975E-01  2.7017856297914045E-06
  4.0388980192480627E-02  1.8016090355024852E-01  2.6819024329553410E-06
  4.0791363525209505E-02  1.7979502677107312E-01  2.6625594254838869E-06
  4.1197755682763564E-02  1.7937427134808839E-01  2.6437586427631035E-06
  4.1608196603865770E-02  1.7903282732260417E-01  2.6255027093935007E-06
  4.2022726625136737E-02  1.7865350775029959E-01  2.6077962022921660E-06
  4.2441386485058769E-02  1.7823808898230128E-01  2.5906474383959004E-06
  4.2864217327979445E-02  1.7787023183409778E-01  2.5740703353995350E-06
  4.3291260708155158E-02  1.7745436862641445E-01  2.5580858772066820E-06
  4.3722558593835024E-02  1.7706216422753759E-01  2.5427228602125622E-06
  4.4158153371385192E-02  1.7667669479806222E-01  2.5280178522006280E-06
  4.4598087849454501E-02  1.7627606943909283E-01  2.5140145154327218E-06
  4.5042405263181616E-02  1.7587904333206122E-01  2.5007625665904643E-06
  4.5491149278443971E-02  1.7546817844498869E-01  2.4883166453470147E-06
  4.5944363996148943E-02  1.7510957014391734E-01  2.4767352961629269E-06
  4.6402093956568212E-02  1.7474711194752157E-01  2.4660800971679371E-06
  4.6864384143714841E-02  1.7437311863378088E-01  2.4564147353124710E-06
  4.7331279989764101E-02  1.7400155132815878E-01  2.4478038679516587E-06
  4.7802827379518457E-02  1.7364877942982621E-01  2.4403117197317094E-06
  4.8279072654917009E-02  1.7328167654510512E-01  2.4340005076601937E-06
  4.8760062619589671E-02  1.7294445144032566E-01  2.4289290509600842E-06
  4.9245844543456908E-02  1.7259420988413418E-01  2.4251519380988251E-06
  4.9736466167375364E-02  1.7224776842891776E-01  2.4227193688160930E-06
  5.0231975707829481E-02  1.7188006851621573E-01  2.4216776576186938E-06
  5.0732421861670103E-02  1.7152528310733192E-01  2.4220702305081786E-06
  5.1237853810900319E-02  1.7114172804403649E-01  2.4239388846431528E-06
  5.1748321227508783E-02  1.7076814710395366E-01  2.4273251083365309E-06
  5.2263874278351274E-02  1.7039032154257802E-01  2.4322712772580264E-06
  5.2784563630080959E-02  1.7002051988978656E-01  2.4388215644093568E-06
  5.3310440454127792E-02  1.6964161632892760E-01  2.4470223608693407E-06
  5.3841556431727319E-02  1.6933801056280817E-01  2.4569221296228236E-06
  5.4377963758999760E-02  1.6902041402936546E-01  2.4685708010197416E-06
  5.4919715152079746E-02  1.6872750237880549E-01  2.4820189283805331E-06
  5.5466863852297009E-02  1.6841889726222115E-01  2.4973167919859623E-06
  5.6019463631408570E-02  1.6812586312611025E-01  2.5145137789540310E-06
  5.6577568796883547E-02  1.6777372759328152E-01  2.5336582148815896E-06
  5.7141234197240147E-02  1.6746930085115808E-01  2.5547976515363753E-06
  5.7710515227435789E-02  1.6710983080511205E-01  2.5779794980596825E-06
  5.8285467834311440E-02  1.6680699617601111E-01  2.6032518354754023E-06
  5.8866148522089753E-02  1.6647341489283685E-01  2.6306642479271039E-06
  5.9452614357927841E-02  1.6613292935444834E-01  2.6602684560977748E-06
  6.0044922977526047E-02  1.6581924333946932E-01  2.6921183921220759E-06
  6.0643132590791952E-02  1.6550367463960794E-01  2.7262693583941986E-06
  6.1247301987560773E-02  1.6520186266418521E-01  2.7627761124756325E-06
  6.1857490543373757E-02  1.6487315347502510E-01  2.8016899962212360E-06
  6.2473758225312509E-02  1.6456308061510094E-01  2.8430553705381235E-06
  6.3096165597892731E-02  1.6426661707959828E-01  2.8869059605827094E-06
  6.3724773829016687E-02  1.6394978015773032E-01  2.9332617432353767E-06
  6.4359644695983695E-02  1.6362067435545538E-01  2.9821267679526677E-06
  6.5000840591562095E-02  1.6332005172723965E-01  3.0334879960423575E-06
  6.5648424530120736E-02  1.6300688523108481E-01  3.0873149702486151E-06
  6.6302460153821574E-02  1.6266125546416083E-01  3.1435599475787526E-06
  6.6963011738874589E-02  1.6234130030679117E-01  3.2021581885825846E-06
  6.7630144201854439E-02  1.6200680044279406E-01  3.2630283496258885E-06
  6.8303923106079981E-02  1.6170523811207604E-01  3.3260729143105685E-06
  6.8984414668058006E-02  1.6138560046103601E-01  3.3911788564855589E-06
  6.9671685763990618E-02  1.6107569166321878E-01  3.4582188967131443E-06
  7.0365803936347268E-02  1.6076772730155364E-01  3.5270531680583360E-06
  7.1066837400503041E-02  1.6045497423248309E-01  3.5975309509634679E-06
  7.1774855051442460E-02  1.6009486156055303E-01  3.6694922895871112E-06
  7.2489926470529889E-02  1.5980079507791767E-01  3.7427690796445702E-06
  7.3212121932348287E-02  1.5943339400300333E-01  3.8171853492887067E-06
  7.3941512411605265E-02  1.5908086157174672E-01  3.8925566873614026E-06
  7.4678169590107896E-02  1.5874113725617733E-01  3.9686889952463094E-06
  7.5422165863808246E-02  1.5838976740678801E-01  4.0453769280799900E-06
  7.6173574349917089E-02  1.5804650851322205E-01  4.1224024019176910E-06
  7.6932468894090153E-02  1.5770700954609271E-01  4.1995337719091975E-06
  7.7698924077685763E-02  1.5737754119729258E-01  4.2765262003320545E-06
  7.8473015225093534E-02  1.5703859261074685E-01  4.3531235244659614E-06
  7.9254818411137712E-02  1.5665367092542387E-01  4.4290618137221599E-06
  8.0044410468553304E-02  1.5634344489708854E-01  4.5040746202885677E-06
