 #p(MeV) \t \delta f_\\nu \t \delta f_\\nubar
  5.3250586368445170E+00  2.9485721242844012E-11  2.8672324481481524E-11
  5.3781106037686337E+00  2.8991628916981115E-11  2.8186335330482655E-11
  5.4316911115758550E+00  2.8506490927923159E-11  2.7709178709011401E-11
  5.4858054259609634E+00  2.8030149439587796E-11  2.7240698582640588E-11
  5.5404588650792714E+00  2.7562438303024378E-11  2.6780730853408237E-11
  5.5956568000692961E+00  2.7103192831102447E-11  2.6329112888583101E-11
  5.6514046555805919E+00  2.6652251613145060E-11  2.5885685289643361E-11
  5.7077079103068735E+00  2.6209456445982232E-11  2.5450291824358482E-11
  5.7645720975244537E+00  2.5774652267118003E-11  2.5022779360936780E-11
  5.8220028056360098E+00  2.5347687089913109E-11  2.4602997804142097E-11
  5.8800056787198152E+00  2.4928411940688312E-11  2.4190800033286487E-11
  5.9385864170843998E+00  2.4516680797660345E-11  2.3786041842013226E-11
  5.9977507778287622E+00  2.4112350531625853E-11  2.3388581879786615E-11
  6.0575045754081662E+00  2.3715280848314165E-11  2.2998281595010981E-11
  6.1178536822055420E+00  2.3325334232333553E-11  2.2615005179705661E-11
  6.1788040291086297E+00  2.2942374976522031E-11  2.2238618630195006E-11
  6.2403616060928178E+00  2.2566265105245455E-11  2.1868985811364596E-11
  6.3025324628098289E+00  2.2196867951318308E-11  2.1505971916006423E-11
  6.3653227091822684E+00  2.1834049864937642E-11  2.1149445113595685E-11
  6.4287385160040609E+00  2.1477680140215500E-11  2.0799276477855652E-11
  6.4927861155469166E+00  2.1127630943301032E-11  2.0455339915904998E-11
  6.5574718021727962E+00  2.0783777242984790E-11  2.0117512099838295E-11
  6.6228019329525063E+00  2.0445996743668503E-11  1.9785672400625329E-11
  6.6887829282904612E+00  2.0114169820588977E-11  1.9459702824219790E-11
  6.7554212725556271E+00  1.9788179457191613E-11  1.9139487949774320E-11
  6.8227235147188159E+00  1.9467911184552662E-11  1.8824914869863067E-11
  6.8906962689962681E+00  1.9153253022756418E-11  1.8515873132619719E-11
  6.9593462154996795E+00  1.8844095903960675E-11  1.8212255148565274E-11
  7.0286801008927133E+00  1.8540341943348815E-11  1.7913964176862838E-11
  7.0987047390540123E+00  1.8241902825686378E-11  1.7620912761508439E-11
  7.1694270117468681E+00  1.7948691709147743E-11  1.7333014899949634E-11
  7.2408538692955098E+00  1.7660622911529742E-11  1.7050185739031738E-11
  7.3129923312681724E+00  1.7377611903372131E-11  1.6772341568207499E-11
  7.3858494871669587E+00  1.7099575301322986E-11  1.6499399812972677E-11
  7.4594324971245447E+00  1.6826430861706193E-11  1.6231279028485868E-11
  7.5337485926078873E+00  1.6558097474251247E-11  1.5967898893333241E-11
  7.6088050771288689E+00  1.6294495155949091E-11  1.5709180203403863E-11
  7.6846093269620814E+00  1.6035545045001411E-11  1.5455044865842617E-11
  7.7611687918697454E+00  1.5781169394833057E-11  1.5205415893052114E-11
  7.8384909958338218E+00  1.5531291534742664E-11  1.4960217364735835E-11
  7.9165835377954554E+00  1.5285830472115044E-11  1.4719369220584380E-11
  7.9954540924017810E+00  1.5044694936668761E-11  1.4482781507837665E-11
  8.0751104107601304E+00  1.4807794266150582E-11  1.4250364903872210E-11
  8.1555603211998200E+00  1.4575040010584518E-11  1.4022032267583463E-11
  8.2368117300414507E+00  1.4346345870738865E-11  1.3797698578733981E-11
  8.3188726223739469E+00  1.4121627638913851E-11  1.3577280879577115E-11
  8.4017510628392795E+00  1.3900803141941632E-11  1.3360698218649933E-11
  8.4854551964250291E+00  1.3683792186295234E-11  1.3147871596633850E-11
  8.5699932492648703E+00  1.3470516505208878E-11  1.2938723914186552E-11
  8.6553735294469707E+00  1.3260899707716091E-11  1.2733179921653842E-11
  8.7416044278305005E+00  1.3054867229517508E-11  1.2531166170574381E-11
  8.8286944188702581E+00  1.2852346285611234E-11  1.2332610966910356E-11
  8.9166520614494882E+00  1.2653267902321333E-11  1.2137446322010275E-11
  9.0054859997210475E+00  1.2457575737283023E-11  1.1945616435473218E-11
  9.0952049639568813E+00  1.2265218004419812E-11  1.1757069916770185E-11
  9.1858177714060432E+00  1.2076143501771219E-11  1.1571755956562920E-11
  9.2773333271611946E+00  1.1890301607638809E-11  1.1389624322963972E-11
  9.3697606250337664E+00  1.1707642281418822E-11  1.1210625362317109E-11
  9.4631087484378558E+00  1.1528116064395601E-11  1.1034709999926876E-11
  9.5573868712828904E+00  1.1351674080479187E-11  1.0861829740721445E-11
  9.6526042588752130E+00  1.1178268036871544E-11  1.0691936669833724E-11
  9.7487702688286504E+00  1.1007850224647723E-11  1.0524983453087480E-11
  9.8458943519841267E+00  1.0840373519240013E-11  1.0360923337377188E-11
  9.9439860533384881E+00  1.0675791380814101E-11  1.0199710150930674E-11
  1.0043055012982503E+01  1.0514057403379496E-11  1.0041297872707930E-11
  1.0143110967048306E+01  1.0355119292769317E-11  9.8856348783957014E-12
  1.0244163748666194E+01  1.0198920875430327E-11  9.7326658679389601E-12
  1.0346223288930991E+01  1.0045407133432833E-11  9.5823366839828452E-12
  1.0449299617878076E+01  9.8945243017645008E-12  9.4345944041361480E-12
  1.0553402865469044E+01  9.7462198362414992E-12  9.2893873093468238E-12
  1.0658543262587276E+01  9.6004423825451300E-12  9.1466648533797494E-12
  1.0764731142043400E+01  9.4571417463342603E-12  9.0063776333474916E-12
  1.0871976939590727E+01  9.3162688643855138E-12  8.8684773612471238E-12
  1.0980291194950873E+01  9.1777757767157330E-12  8.7329168364584820E-12
  1.1089684552849530E+01  9.0416155996435796E-12  8.5996499191611667E-12
  1.1200167764062634E+01  8.9077424997490302E-12  8.4686315046300458E-12
  1.1311751686472869E+01  8.7761117043290986E-12  8.3398175325515137E-12
  1.1424447286136754E+01  8.6466824333549966E-12  8.2131677827557316E-12
  1.1538265638362374E+01  8.5194197427153995E-12  8.0886476192352023E-12
  1.1653217928797769E+01  8.3942896422585127E-12  7.9662233327534364E-12
  1.1769315454530258E+01  8.2712585868256645E-12  7.8458616564855156E-12
  1.1886569625196673E+01  8.1502934734228683E-12  7.7275297631924444E-12
  1.2004991964104622E+01  8.0313616386908072E-12  7.6111952626753007E-12
  1.2124594109365011E+01  7.9144308566374203E-12  7.4968261994744106E-12
  1.2245387815035734E+01  7.7994693366007053E-12  7.3843910507816384E-12
  1.2367384952276877E+01  7.6864457214109608E-12  7.2738587245361318E-12
  1.2490597510517325E+01  7.5753290857246330E-12  7.1651985576761846E-12
  1.2615037598633059E+01  7.4660889345038039E-12  7.0583803145221773E-12
  1.2740717446137188E+01  7.3586952016654916E-12  6.9533741853118147E-12
  1.2867649404381787E+01  7.2531178855701494E-12  6.8501504420641848E-12
  1.2995845947771754E+01  7.1493263978530710E-12  6.7486788447020310E-12
  1.3125319674990774E+01  7.0472905496357835E-12  6.6489295629602135E-12
  1.3256083310239427E+01  6.9469806296439530E-12  6.5508732389202196E-12
  1.3388149704485725E+01  6.8483673956135108E-12  6.4544809785909150E-12
  1.3521531836727998E+01  6.7514220671400227E-12  6.3597243448716228E-12
  1.3656242815270494E+01  6.6561163192596630E-12  6.2665753512140946E-12
  1.3792295879011542E+01  6.5624222766957925E-12  6.1750064559187935E-12
  1.3929704398744670E+01  6.4703125087091609E-12  6.0849905570051004E-12
  1.4068481878472635E+01  6.3797600244944693E-12  5.9965009875990746E-12
  1.4208641956734523E+01  6.2907382690694887E-12  5.9095115117867110E-12
  1.4350198407946097E+01  6.2032211196072066E-12  5.8239963208838173E-12
  1.4493165143753535E+01  6.1171826665700282E-12  5.7399298236191464E-12
  1.4637556214400552E+01  6.0325939475027632E-12  5.6572835169499529E-12
  1.4783385810109275E+01  5.9494238558019891E-12  5.5760268621190698E-12
  1.4930668262474734E+01  5.8676420072833065E-12  5.4961300332683067E-12
  1.5079418045873391E+01  5.7872187975563838E-12  5.4175639717806632E-12
  1.5229649778885564E+01  5.7081253781901779E-12  5.3403003628540070E-12
  1.5381378225732124E+01  5.6303336340817674E-12  5.2643116132452392E-12
  1.5534618297725475E+01  5.5538161619602607E-12  5.1895708301175739E-12
  1.5689385054734947E+01  5.4785462499607511E-12  5.1160518009272739E-12
  1.5845693706666845E+01  5.4044978582069021E-12  5.0437289742895409E-12
  1.6003559614959247E+01  5.3316456003440943E-12  4.9725774417666828E-12
  1.6162998294091626E+01  5.2599647259683123E-12  4.9025729205247851E-12
  1.6324025413109563E+01  5.1894311200539623E-12  4.8336917527689406E-12
  1.6486656797164681E+01  5.1200232914446920E-12  4.7659128132346251E-12
  1.6650908429069851E+01  5.0517239116692272E-12  4.6992189691446943E-12
  1.6816796450869919E+01  4.9845162682795894E-12  4.6335936834538767E-12
  1.6984337165428094E+01  4.9183838541426789E-12  4.5690206229689051E-12
  1.7153547038028158E+01  4.8533103662236010E-12  4.5054836571508871E-12
  1.7324442697992573E+01  4.7892797044444509E-12  4.4429668569865773E-12
  1.7497040940316761E+01  4.7262759706093035E-12  4.3814544939195131E-12
  1.7671358727319692E+01  4.6642834673869430E-12  4.3209310388329846E-12
  1.7847413190310828E+01  4.6032866973434533E-12  4.2613811610769049E-12
  1.8025221631273730E+01  4.5432703620173103E-12  4.2027897275316763E-12
  1.8204801524566477E+01  4.4842193610302690E-12  4.1451418017024525E-12
  1.8386170518638945E+01  4.4261187914533266E-12  4.0884226430338245E-12
  1.8569346437767226E+01  4.3689537638519128E-12  4.0326175217042661E-12
  1.8754347283805348E+01  4.3127085060017096E-12  3.9777108517488768E-12
  1.8941191237954445E+01  4.2573671776613337E-12  3.9236869893430251E-12
  1.9129896662549505E+01  4.2029142322523532E-12  3.8705305803555837E-12
  1.9320482102863956E+01  4.1493344111300530E-12  3.8182265546785820E-12
  1.9512966288932283E+01  4.0966127379925883E-12  3.7667601206921735E-12
  1.9707368137390667E+01  4.0447345134254160E-12  3.7161167598618204E-12
  1.9903706753336067E+01  3.9936853095765957E-12  3.6662822214634390E-12
  2.0102001432203860E+01  3.9434509649588528E-12  3.6172425174323890E-12
  2.0302271661664054E+01  3.8940175793745614E-12  3.5689839173325671E-12
  2.0504537123536462E+01  3.8453715089597662E-12  3.5214929434417347E-12
  2.0708817695724999E+01  3.7974993613435817E-12  3.4747563659495879E-12
  2.0915133454171219E+01  3.7503880132690120E-12  3.4287612207688968E-12
  2.1123504674827242E+01  3.7040249588740803E-12  3.3834951458354270E-12
  2.1333951835648428E+01  3.6583981858172949E-12  3.3389462573912436E-12
  2.1546495618605942E+01  3.6134958798296612E-12  3.2951028670205295E-12
  2.1761156911719191E+01  3.5693064159598229E-12  3.2519534732513944E-12
  2.1977956811108672E+01  3.5258183559143925E-12  3.2094867589056793E-12
  2.2196916623069253E+01  3.4830204454389064E-12  3.1676915884878559E-12
  2.2418057866164041E+01  3.4409016117383566E-12  3.1265570056119235E-12
  2.2641402273339136E+01  3.3994509609362883E-12  3.0860722304653027E-12
  2.2866971794059477E+01  3.3586577755714223E-12  3.0462266573088751E-12
  2.3094788596466000E+01  3.3185115121311152E-12  3.0070098520122288E-12
  2.3324875069554157E+01  3.2790017986206318E-12  2.9684115496233779E-12
  2.3557253825374268E+01  3.2401183941578689E-12  2.9304216174764354E-12
  2.3791947701253793E+01  3.2018498478543024E-12  2.8930288340722564E-12
  2.4028979762041612E+01  3.1641832011123699E-12  2.8562206209202144E-12
  2.4268373302374798E+01  3.1271056930450278E-12  2.8199846012871622E-12
  2.4510151848967958E+01  3.0906048708461754E-12  2.7843087006964694E-12
  2.4754339162925323E+01  3.0546685814945532E-12  2.7491811388074673E-12
  2.5000959242075865E+01  3.0192849637236393E-12  2.7145904215542631E-12
  2.5250036323331763E+01  2.9844424402479303E-12  2.6805253335345763E-12
  2.5501594885070325E+01  2.9501297102365672E-12  2.6469749306397182E-12
  2.5755659649539599E+01  2.9163357420255835E-12  2.6139285329170413E-12
  2.6012255585287974E+01  2.8830497660602667E-12  2.5813757176566233E-12
  2.6271407909618084E+01  2.8502612680596198E-12  2.5493063126942094E-12
  2.6533142091064946E+01  2.8179599829367631E-12  2.5177103904109229E-12
  2.6797483851898981E+01  2.7861363457165563E-12  2.4865786691702933E-12
  2.7064459170653940E+01  2.7547822950688975E-12  2.4559032268467053E-12
  2.7334094284679942E+01  2.7238901488552052E-12  2.4256764933543185E-12
  2.7606415692721892E+01  2.6934523654655739E-12  2.3958910368548751E-12
  2.7881450157523858E+01  2.6634615410070109E-12  2.3665395609818032E-12
  2.8159224708459107E+01  2.6339104065655493E-12  2.3376149021358039E-12
  2.8439766644186445E+01  2.6047918255399386E-12  2.3091100268495666E-12
  2.8723103535333045E+01  2.5760987910445626E-12  2.2810180292193562E-12
  2.9009263227204052E+01  2.5478244233793885E-12  2.2533321284013070E-12
  2.9298273842519002E+01  2.5199619675648645E-12  2.2260456661703443E-12
  2.9590163784175683E+01  2.4925047909396715E-12  2.1991521045396714E-12
  2.9884961738041486E+01  2.4654463808194104E-12  2.1726450234389563E-12
  3.0182696675772544E+01  2.4387803344124797E-12  2.1465181111325599E-12
  3.0483397857660844E+01  2.4125003306681637E-12  2.1207651415855053E-12
  3.0787094835509997E+01  2.3866001623580505E-12  2.0953800030500862E-12
  3.1093817455539394E+01  2.3610737338868629E-12  2.0703566934304615E-12
  3.1403595861317346E+01  2.3359150585779477E-12  2.0456893176287427E-12
  3.1716460496723514E+01  2.3111182566007811E-12  2.0213720854996013E-12
  3.2032442108940899E+01  2.2866775529468741E-12  1.9973993098515756E-12
  3.2351571751477415E+01  2.2625872754527525E-12  1.9737654044938345E-12
  3.2673880787217826E+01  2.2388418528687468E-12  1.9504648823270994E-12
  3.2999400891505928E+01  2.2154358129723441E-12  1.9274923534775255E-12
  3.3328164055257552E+01  2.1923637807249250E-12  1.9048425234723437E-12
  3.3660202588104340E+01  2.1696204764707454E-12  1.8825101914561358E-12
  3.3995549121569233E+01  2.1472006877329967E-12  1.8604902260131727E-12
  3.4334236612273259E+01  2.1250986555363093E-12  1.8387770352604322E-12
  3.4676298345174374E+01  2.1033080675697661E-12  1.8173645599676470E-12
  3.5021767936838629E+01  2.0818227211501226E-12  1.7962468519778520E-12
  3.5370679338743919E+01  2.0606365542122420E-12  1.7754181011782631E-12
  3.5723066840616475E+01  2.0397436417852354E-12  1.7548726320600494E-12
  3.6078965073800880E+01  2.0191381925722117E-12  1.7346049003784453E-12
  3.6438409014663421E+01  1.9988145456303686E-12  1.7146094899100099E-12
  3.6801433988029530E+01  1.9787671671482078E-12  1.6948811093038575E-12
  3.7168075670655178E+01  1.9589906473168227E-12  1.6754145890238340E-12
  3.7538370094733303E+01  1.9394796972922258E-12  1.6562048783786824E-12
  3.7912353651434778E+01  1.9202291462458914E-12  1.6372470426373908E-12
  3.8290063094484815E+01  1.9012339402351456E-12  1.6185362615998972E-12
  3.8671535543774979E+01  1.8824894512937461E-12  1.6000680834537075E-12
  3.9056808489011289E+01  1.8639918449644179E-12  1.5818387285084277E-12
  3.9445919793398431E+01  1.8457374519265730E-12  1.5638445648965368E-12
  3.9838907697360867E+01  1.8277226675372114E-12  1.5460820240282455E-12
  4.0235810822301040E+01  1.8099439505351595E-12  1.5285475993138806E-12
  4.0636668174394856E+01  1.7923978217806422E-12  1.5112378449199437E-12
  4.1041519148425017E+01  1.7750808630290701E-12  1.4941493745578046E-12
  4.1450403531652739E+01  1.7579897157380105E-12  1.4772788603039798E-12
  4.1863361507727831E+01  1.7411210799063489E-12  1.4606230314509942E-12
  4.2280433660637755E+01  1.7244717129446576E-12  1.4441786733878735E-12
  4.2701660978696076E+01  1.7080384285758208E-12  1.4279426265093079E-12
  4.3127084858570761E+01  1.6918180957650318E-12  1.4119117851526028E-12
  4.3556747109352337E+01  1.6758075746664234E-12  1.3960830475007505E-12
  4.3990689956662770E+01  1.6600034630879293E-12  1.3804531186370654E-12
  4.4428956046805354E+01  1.6444023241929620E-12  1.3650186900824888E-12
  4.4871588450955734E+01  1.6290007878273358E-12  1.3497765188441755E-12
  4.5318630669394700E+01  1.6137955490920708E-12  1.3347234260110925E-12
  4.5770126635783448E+01  1.5987833669558583E-12  1.3198562953941528E-12
  4.6226120721481081E+01  1.5839610629068869E-12  1.3051720722035830E-12
  4.6686657739905250E+01  1.5693255196427589E-12  1.2906677617622679E-12
  4.7151782950936273E+01  1.5548736797973369E-12  1.2763404282539117E-12
  4.7621542065365198E+01  1.5406025447033355E-12  1.2621871935048553E-12
  4.8095981249385950E+01  1.5265091731895915E-12  1.2482052357984687E-12
  4.8575147129132432E+01  1.5125906804118901E-12  1.2343917887210306E-12
  4.9059086795260860E+01  1.4988442383830643E-12  1.2207441406021376E-12
  4.9547847807577490E+01  1.4852670359770798E-12  1.2072595880928114E-12
  5.0041478199712714E+01  1.4718562479647861E-12  1.1939354127160030E-12
  5.0540026483841672E+01  1.4586091015251840E-12  1.1807689476552954E-12
  5.1043541655451790E+01  1.4455228800972864E-12  1.1677575811723657E-12
  5.1552073198157856E+01  1.4325949220919755E-12  1.1548987553479027E-12
  5.2065671088565090E+01  1.4198226196475507E-12  1.1421899648633358E-12
  5.2584385801180780E+01  1.4072034174273368E-12  1.1296287558218264E-12
  5.3108268313374545E+01  1.3947348114579249E-12  1.1172127246070700E-12
  5.3637370110388304E+01  1.3824143480065426E-12  1.1049395167784367E-12
  5.4171743190396114E+01  1.3702396224961990E-12  1.0928068260010821E-12
  5.4711440069614291E+01  1.3582082784572653E-12  1.0808123930097173E-12
  5.5256513787462360E+01  1.3463180070524318E-12  1.0689540050672487E-12
  5.5807017911775887E+01  1.3345667154630488E-12  1.0572296390981743E-12
  5.6363006544070771E+01  1.3229527513873997E-12  1.0456376504391120E-12
  5.6924534324859977E+01  1.3114745428675280E-12  1.0341764650816338E-12
  5.7491656439023693E+01  1.3001305379812563E-12  1.0228445283844284E-12
  5.8064428621232622E+01  1.2889192046093756E-12  1.0116403048339588E-12
  5.8642907161425100E+01  1.2778390302156217E-12  1.0005622778156584E-12
  5.9227148910339501E+01  1.2668885216388586E-12  9.8960894939505174E-13
  5.9817211285101102E+01  1.2560662048968849E-12  9.7877884010821571E-13
  6.0413152274864558E+01  1.2453706250013324E-12  9.6807048876104170E-13
  6.1015030446513592E+01  1.2348003457830804E-12  9.5748245223673321E-13
  6.1622904950415908E+01  1.2243539497277598E-12  9.4701330531104874E-13
  6.2236835526236597E+01  1.2140300378205230E-12  9.3666164047463751E-13
  6.2856882508809605E+01  1.2038271214329008E-12  9.2642597842368785E-13
  6.3483106834066298E+01  1.1937431035462403E-12  9.1630434154556541E-13
  6.4115570045024768E+01  1.1837757045507062E-12  9.0629460925957731E-13
  6.4754334297837829E+01  1.1739226961508544E-12  8.9639471126459886E-13
  6.5399462367901222E+01  1.1641819004267215E-12  8.8660262657572250E-13
  6.6051017656023404E+01  1.1545511886339031E-12  8.7691638235150660E-13
  6.6709064194656108E+01  1.1450284800477020E-12  8.6733405276157531E-13
  6.7373666654187076E+01  1.1356117408497182E-12  8.5785375789296737E-13
  6.8044890349295940E+01  1.1262989830553394E-12  8.4847366269366822E-13
  6.8722801245373006E+01  1.1170882634806653E-12  8.3919197595186891E-13
  6.9407465965001791E+01  1.1079776827474087E-12  8.3000694930950823E-13
  7.0098951794506917E+01  1.0989653843244188E-12  8.2091687630869547E-13
  7.0797326690566521E+01  1.0900495951360023E-12  8.1192012447423131E-13
  7.1502659286890619E+01  1.0812292794592796E-12  8.0301565409105543E-13
  7.2215018900966555E+01  1.0725039942867920E-12  7.9420289756257575E-13
  7.2934475540871077E+01  1.0638733089198687E-12  7.8548129504398295E-13
  7.3661099912150178E+01  1.0553367870709964E-12  7.7685028018391164E-13
  7.4394963424768562E+01  1.0468939872332103E-12  7.6830928045893440E-13
  7.5136138200126652E+01  1.0385444630471926E-12  7.5985771750380056E-13
  7.5884697078148776E+01  1.0302877636659438E-12  7.5149500743720605E-13
  7.6640713624442128E+01  1.0221234341169111E-12  7.4322056118299251E-13
  7.7404262137525492E+01  1.0140510156615232E-12  7.3503378478665111E-13
  7.8175417656131913E+01  1.0060700461519859E-12  7.2693407972698717E-13
  7.8954255966582878E+01  9.9818006038534460E-13  7.1892084322287250E-13
