 #p(MeV) \t \delta f_\\nu \t \delta f_\\nubar
  6.6101262870071353E-01  2.6824508179819007E-01  8.5711231089250332E-06
  6.6759809986747498E-01  2.6774810361345469E-01  8.4659623211506710E-06
  6.7424918011431290E-01  2.6732139481292977E-01  8.3618268138263805E-06
  6.8096652308487482E-01  2.6700775697214829E-01  8.2587105454570224E-06
  6.8775078893486274E-01  2.6666561793153110E-01  8.1566074759714452E-06
  6.9460264439691422E-01  2.6612824090953996E-01  8.0555115953670067E-06
  7.0152276284612347E-01  2.6559046203367576E-01  7.9554168926837529E-06
  7.0851182436621951E-01  2.6504083695189484E-01  7.8563174462582354E-06
  7.1557051581640341E-01  2.6458874691838707E-01  7.7582075688752934E-06
  7.2269953089884742E-01  2.6414623251438263E-01  7.6610815335085349E-06
  7.2989957022687246E-01  2.6370585332534141E-01  7.5649332951356934E-06
  7.3717134139379970E-01  2.6322248539498777E-01  7.4697567241922961E-06
  7.4451555904249078E-01  2.6276869319561219E-01  7.3755456752605902E-06
  7.5193294493558160E-01  2.6227639296893984E-01  7.2822939881210719E-06
  7.5942422802641196E-01  2.6180721516918898E-01  7.1899954886823862E-06
  7.6699014453066749E-01  2.6139774557372991E-01  7.0986439898943638E-06
  7.7463143799872902E-01  2.6094856405069683E-01  7.0082332901410203E-06
  7.8234885938874765E-01  2.6054229084085279E-01  6.9187571567987772E-06
  7.9014316714044719E-01  2.6009501484119024E-01  6.8302093895682171E-06
  7.9801512724965817E-01  2.5965684551618279E-01  6.7425838513607331E-06
  8.0596551334360000E-01  2.5921826585193436E-01  6.6558741756204026E-06
  8.1399510675690756E-01  2.5873463819212061E-01  6.5700736017051755E-06
  8.2210469660841901E-01  2.5821563541729914E-01  6.4851752252222669E-06
  8.3029507987872897E-01  2.5769563562975650E-01  6.4011721687898197E-06
  8.3856706148850935E-01  2.5721404067016207E-01  6.3180575826357204E-06
  8.4692145437761823E-01  2.5679924958742761E-01  6.2358246442114250E-06
  8.5535907958498902E-01  2.5638086589257209E-01  6.1544665582995076E-06
  8.6388076632931998E-01  2.5597414073495028E-01  6.0739765571154262E-06
  8.7248735209056916E-01  2.5546771468966989E-01  5.9943479009188766E-06
  8.8117968269225533E-01  2.5493479026535620E-01  5.9155738871860902E-06
  8.8995861238458540E-01  2.5445690152262940E-01  5.8376478187835803E-06
  8.9882500392840459E-01  2.5394895957059227E-01  5.7605629051186710E-06
  9.0777972867998635E-01  2.5349500464592756E-01  5.6843124293343409E-06
  9.1682366667666781E-01  2.5305826723801161E-01  5.6088901003782085E-06
  9.2595770672333233E-01  2.5261332005137299E-01  5.5342901366709487E-06
  9.3518274647976340E-01  2.5214045399223589E-01  5.4605069496544051E-06
  9.4449969254885824E-01  2.5175039591595966E-01  5.3875349443097898E-06
  9.5390946056572845E-01  2.5130802892589282E-01  5.3153685093816984E-06
  9.6341297528768521E-01  2.5085474670701607E-01  5.2440020182140965E-06
  9.7301117068511911E-01  2.5036001809767300E-01  5.1734298295906420E-06
  9.8270499003328859E-01  2.4982283784527071E-01  5.1036462884952008E-06
  9.9249538600502263E-01  2.4929717343602079E-01  5.0346457240903110E-06
  1.0023833207643429E+00  2.4867089229437078E-01  4.9664224483706622E-06
  1.0123697660610258E+00  2.4732390448196573E-01  4.8989707767960999E-06
  1.0224557033260975E+00  3.0563361281922951E-03  4.8322850243827956E-06
  1.0326421237682906E+00  9.3573313389781916E-04  4.7663595272801198E-06
  1.0429300284714524E+00  5.4383619839420451E-04  4.7011888171752439E-06
  1.0533204284929287E+00  3.7913370884162535E-04  4.6367676593338291E-06
  1.0638143449629296E+00  2.8856609304659156E-04  4.5730908295879798E-06
  1.0744128091848781E+00  2.3133845197097978E-04  4.5101530730843797E-06
  1.0851168627367649E+00  1.9194363364596323E-04  4.4479491056278114E-06
  1.0959275575735121E+00  1.6319810968343454E-04  4.3864736150488382E-06
  1.1068459561303527E+00  1.4131839332153095E-04  4.3257212625873938E-06
  1.1178731314272459E+00  1.2412249798464449E-04  4.2656866848985402E-06
  1.1290101671743258E+00  1.1026377990885711E-04  4.2063644967060384E-06
  1.1402581578784086E+00  9.8866181095268269E-05  4.1477493040075126E-06
  1.1516182089505533E+00  8.9335234490925400E-05  4.0898356834707463E-06
  1.1630914368146987E+00  8.1253371485295341E-05  4.0326179533595574E-06
  1.1746789690173827E+00  7.4318692298774272E-05  3.9760897041420591E-06
  1.1863819443385510E+00  6.8307496416452278E-05  3.9202436202619615E-06
  1.1982015129034731E+00  6.3050523973903438E-05  3.8650721943054648E-06
  1.2101388362957746E+00  5.8417367624547937E-05  3.8105680062683995E-06
  1.2221950876715890E+00  5.4305937986450402E-05  3.7567237259170918E-06
  1.2343714518748561E+00  5.0635179280951052E-05  3.7035321114723203E-06
  1.2466691255537585E+00  4.7339922841958045E-05  3.6509860083078485E-06
  1.2590893172783300E+00  4.4367180720213693E-05  3.5990783475160933E-06
  1.2716332476592245E+00  4.1673430274844616E-05  3.5478021464461006E-06
  1.2843021494676743E+00  3.9222593875170481E-05  3.4971505150123712E-06
  1.2970972677566450E+00  3.6984514726075649E-05  3.4471167044099492E-06
  1.3100198599831907E+00  3.4933792813630697E-05  3.3976943526966693E-06
  1.3230711961320343E+00  3.3048887464910763E-05  3.3488779158820182E-06
  1.3362525588403782E+00  3.1311423933734660E-05  3.3006629281989932E-06
  1.3495652435239540E+00  2.9705633114777206E-05  3.2530453749520799E-06
  1.3630105585043344E+00  2.8217896642430521E-05  3.2060211993611001E-06
  1.3765898251375068E+00  2.6836392313431621E-05  3.1595862804434543E-06
  1.3903043779437358E+00  2.5550808043929986E-05  3.1137364359309820E-06
  1.4041555647387105E+00  2.4352108765262777E-05  3.0684674251462545E-06
  1.4181447467660035E+00  2.3232345173736077E-05  3.0237749518437884E-06
  1.4322732988308544E+00  2.2184495823413793E-05  2.9796546657506108E-06
  1.4465426094352716E+00  2.1202335964472423E-05  2.9361021551031636E-06
  1.4609540809144956E+00  2.0280327937340764E-05  2.8931129013646532E-06
  1.4755091295748157E+00  1.9413528804574468E-05  2.8506820791814908E-06
  1.4902091858327533E+00  1.8597511470008394E-05  2.8088042226046070E-06
  1.5050556943556457E+00  1.7828295493109696E-05  2.7674730355579477E-06
  1.5200501142036156E+00  1.7102290977250663E-05  2.7266817607299285E-06
  1.5351939189729684E+00  1.6416257083756041E-05  2.6864236788378976E-06
  1.5504885969410069E+00  1.5767261791306599E-05  2.6466921675752057E-06
  1.5659356512122951E+00  1.5152646209121537E-05  2.6074806997524342E-06
  1.5815365998663813E+00  1.4569993716580007E-05  2.5687828414729360E-06
  1.5972929761069836E+00  1.4017103185265936E-05  2.5305922503546358E-06
  1.6132063284126703E+00  1.3491965668183030E-05  2.4929026744499046E-06
  1.6292782206890413E+00  1.2992744049577637E-05  2.4557079568106352E-06
  1.6455102324224169E+00  1.2517755250094083E-05  2.4190020610818871E-06
  1.6619039588350710E+00  1.2065454760477377E-05  2.3827791884069373E-06
  1.6784610110419960E+00  1.1634423395171058E-05  2.3470339878904390E-06
  1.6951830162092454E+00  1.1223355975646491E-05  2.3117616401779767E-06
  1.7120716177138380E+00  1.0831050581403415E-05  2.2769576483609348E-06
  1.7291284753052676E+00  1.0456397223063130E-05  2.2426175643225981E-06
  1.7463552652686174E+00  1.0098368828330342E-05  2.2087369365459583E-06
  1.7637536805892959E+00  9.7560137086881012E-06  2.1753113112097201E-06
  1.7813254311194189E+00  9.4284488341461684E-06  2.1423362335876120E-06
  1.7990722437458493E+00  9.1148538131062093E-06  2.1098072494113438E-06
  1.8169958625599048E+00  8.8144654924857241E-06  2.0777199059970214E-06
  1.8350980490287669E+00  8.5265731024708731E-06  2.0460697508836442E-06
  1.8533805821685843E+00  8.2505138739765340E-06  2.0148523214369586E-06
  1.8718452587193148E+00  7.9856690190213317E-06  1.9840630905526665E-06
  1.8904938933212967E+00  7.7314599519993419E-06  1.9536973553765899E-06
  1.9093283186935874E+00  7.4873449330656151E-06  1.9237502238713535E-06
  1.9283503858140791E+00  7.2528167798595591E-06  1.8942168075841259E-06
  1.9475619641014006E+00  7.0274004534382732E-06  1.8650923042157875E-06
  1.9669649415986392E+00  6.8106502493485262E-06  1.8363719555867716E-06
  1.9865612251588936E+00  6.6021475792530534E-06  1.8080510443832646E-06
  2.0063527406326673E+00  6.4014989737113239E-06  1.7801248939090884E-06
  2.0263414330571372E+00  6.2083342580287592E-06  1.7525888678446544E-06
  2.0465292668473039E+00  6.0223048839841108E-06  1.7254383700406227E-06
  2.0669182259890486E+00  5.8430824029255194E-06  1.6986688450945444E-06
  2.0875103142341094E+00  5.6703570695533048E-06  1.6722757822138611E-06
  2.1083075552970016E+00  5.5038365892682818E-06  1.6462547406027253E-06
  2.1293119930539093E+00  5.3432450675363167E-06  1.6206014307147856E-06
  2.1505256917435371E+00  5.1883221150895295E-06  1.5953117849843050E-06
  2.1719507361699852E+00  5.0388217621689508E-06  1.5703818841456649E-06
  2.1935892319076356E+00  4.8945111512937093E-06  1.5458078261875345E-06
  2.2154433055080762E+00  4.7551696959307279E-06  1.5215857146016977E-06
  2.2375151047090918E+00  4.6205883202523314E-06  1.4977116626204936E-06
  2.2598067986457377E+00  4.4905687337543123E-06  1.4741817941978841E-06
  2.2823205780635147E+00  4.3649227597014462E-06  1.4509922449602647E-06
  2.3050586555336636E+00  4.2434717128094670E-06  1.4281391631277133E-06
  2.3280232656706099E+00  4.1260458218713445E-06  1.4056187102696689E-06
  2.3512166653515791E+00  4.0124836924404866E-06  1.3834270608441449E-06
  2.3746411339383853E+00  3.9026317966944199E-06  1.3615603930981201E-06
  2.3982989735014422E+00  3.7963439235568049E-06  1.3400148290656319E-06
  2.4221925090460075E+00  3.6934804965478866E-06  1.3187863067966337E-06
  2.4463240887406683E+00  3.5939077425301811E-06  1.2978704766232322E-06
  2.4706960841481096E+00  3.4974972586778932E-06  1.2772627847647011E-06
  2.4953108904581924E+00  3.4041265029097663E-06  1.2569587005407205E-06
  2.5201709267233374E+00  3.3136786999510118E-06  1.2369537670532998E-06
  2.5452786360962567E+00  3.2260425196347295E-06  1.2172436000394549E-06
  2.5706364860700641E+00  3.1411117748467314E-06  1.1978238864930251E-06
  2.5962469687207737E+00  3.0587851390002620E-06  1.1786903833150774E-06
  2.6221126009522022E+00  2.9789658816088964E-06  1.1598389160051553E-06
  2.6482359247433274E+00  2.9015616213334590E-06  1.1412653780637314E-06
  2.6746195073981078E+00  2.8264840964926541E-06  1.1229657320096821E-06
  2.7012659417977796E+00  2.7536489795931629E-06  1.1049360326319048E-06
  2.7281778466556776E+00  2.6829758102807475E-06  1.0871725109636725E-06
  2.7553578667746006E+00  2.6143880879360777E-06  1.0696716833833269E-06
  2.7828086733067239E+00  2.5478133403463997E-06  1.0524303671791581E-06
  2.8105329640161112E+00  2.4831824442768663E-06  1.0354454923980175E-06
  2.8385334635438437E+00  2.4204291142778286E-06  1.0187140064711456E-06
  2.8668129236757913E+00  2.3594897523282944E-06  1.0022328718764629E-06
  2.8953741236130379E+00  2.3003033179667402E-06  9.8599906668239236E-07
  2.9242198702450177E+00  2.2428112058029972E-06  9.7000958507174302E-07
  2.9533529984253701E+00  2.1869571299312253E-06  9.5426143784881584E-07
  2.9827763712505275E+00  2.1326870144251822E-06  9.3875165257232256E-07
  3.0124928803410982E+00  2.0799488901164766E-06  9.2347727389076289E-07
  3.0425054461260426E+00  2.0286927957337291E-06  9.0843536309848115E-07
  3.0728170181296841E+00  1.9788706585001525E-06  8.9362297908490260E-07
  3.1034305752615690E+00  1.9304361575214419E-06  8.7903715213371406E-07
  3.1343491261092313E+00  1.8833446484095788E-06  8.6467489632462501E-07
  3.1655757092338659E+00  1.8375531603311271E-06  8.5053324624585613E-07
  3.1971133934689409E+00  1.7930203360300719E-06  8.3660926425991820E-07
  3.2289652782217937E+00  1.7497063592063491E-06  8.2290004020457754E-07
  3.2611344937782358E+00  1.7075728869541958E-06  8.0940269141594787E-07
  3.2936242016101742E+00  1.6665829856582465E-06  7.9611436274391960E-07
  3.3264375946863161E+00  1.6267010701375587E-06  7.8303222655416958E-07
  3.3595778977859641E+00  1.5878928459272131E-06  7.7015348279415170E-07
  3.3930483678159353E+00  1.5501252544092331E-06  7.5747535902903272E-07
  3.4268522941306241E+00  1.5133664168507435E-06  7.4499510703268562E-07
  3.4609929988552901E+00  1.4775855818222832E-06  7.3271000032411509E-07
  3.4954738372125318E+00  1.4427530914917346E-06  7.2061734352958146E-07
  3.5302981978520234E+00  1.4088403763211414E-06  7.0871449132173682E-07
  3.5654695031835431E+00  1.3758199300786499E-06  6.9699885160100494E-07
  3.6009912097133192E+00  1.3436652096953146E-06  6.8546786236766072E-07
  3.6368668083837119E+00  1.3123505803056726E-06  6.7411898600537398E-07
  3.6730998249162989E+00  1.2818512790411422E-06  6.6294970930564140E-07
  3.7096938201583676E+00  1.2521433805565753E-06  6.5195754350283201E-07
  3.7466523904328675E+00  1.2232037641433716E-06  6.4114002430373237E-07
  3.7839791678918253E+00  1.1950100824048385E-06  6.3049471196849675E-07
  3.8216778208733237E+00  1.1675407314793996E-06  6.2001919150400223E-07
  3.8597520542619996E+00  1.1407748230238886E-06  6.0971107324259235E-07
  3.8982056098531430E+00  1.1146921558020584E-06  5.9956799173470799E-07
  3.9370422667204314E+00  1.0892732379883169E-06  5.8958763803662526E-07
  3.9762658415873311E+00  1.0644996022288390E-06  5.7976794162564639E-07
  4.0158801892021749E+00  1.0403543964259125E-06  5.7010730947935277E-07
  4.0558892027170019E+00  1.0168217223469925E-06  5.6060433040224103E-07
  4.0962968140701639E+00  9.9388608814482025E-07  5.5125756657588398E-07
  4.1371069943727417E+00  9.7153238351679024E-07  5.4206554995005792E-07
  4.1783237542987957E+00  9.4974587094189634E-07  5.3302678439102703E-07
  4.2199511444795457E+00  9.2851217712581150E-07  5.2413974778270796E-07
  4.2619932559014364E+00  9.0781728460527432E-07  5.1540289404032818E-07
  4.3044542203081821E+00  8.8764752335350126E-07  5.0681465488902838E-07
  4.3473382106068259E+00  8.6798956239318235E-07  4.9837344142960979E-07
  4.3906494412778434E+00  8.4883040172874414E-07  4.9007764582762825E-07
  4.4343921687893078E+00  8.3015735051629653E-07  4.8192563288004988E-07
  4.4785706920152162E+00  8.1195789188930672E-07  4.7391566254372573E-07
  4.5231893526579627E+00  7.9421930030133756E-07  4.6604571324929951E-07
  4.5682525356750299E+00  7.7692875354452713E-07  4.5831356467272065E-07
  4.6137646697099042E+00  7.6007378344424169E-07  4.5071700608290991E-07
  4.6597302275273371E+00  7.4364230625784022E-07  4.4325385480666765E-07
  4.7061537264528948E+00  7.2762260947089832E-07  4.3592195615010255E-07
  4.7530397288169057E+00  7.1200333910541141E-07  4.2871918331003999E-07
  4.8003928424028279E+00  6.9677348752390471E-07  4.2164343728180626E-07
  4.8482177209000961E+00  6.8192238179110290E-07  4.1469264684376259E-07
  4.8965190643614553E+00  6.6743967233049158E-07  4.0786476839462353E-07
  4.9453016196648703E+00  6.5331531632013243E-07  4.0115778061559281E-07
  4.9945701809800367E+00  6.3953957306732976E-07  3.9456968796602228E-07
  5.0443295902395295E+00  6.2610324238211947E-07  3.8809869446705721E-07
  5.0945847376146389E+00  6.1299871018884248E-07  3.8174379676789623E-07
  5.1453405619959796E+00  6.0022046199946255E-07  3.7550497005503170E-07
  5.1966020514788598E+00  5.8776335594208271E-07  3.6938229141066268E-07
  5.2483742438534815E+00  5.7562220054469841E-07  3.6337574047748430E-07
  5.3006622271000428E+00  5.6379176646646750E-07  3.5748520501962769E-07
  5.3534711398887778E+00  5.5226679837070126E-07  3.5171048676490165E-07
  5.4068061720849476E+00  5.4104202618623668E-07  3.4605130717593921E-07
  5.4606725652588866E+00  5.3011217580663565E-07  3.4050731317359354E-07
  5.5150756132011329E+00  5.1947197912450914E-07  3.3507808269004480E-07
  5.5700206624426833E+00  5.0911618457572784E-07  3.2976313110570827E-07
  5.6255131127804026E+00  4.9903956899612109E-07  3.2456191948726414E-07
  5.6815584178077376E+00  4.8923685679168102E-07  3.1947379251872248E-07
  5.7381620854506510E+00  4.7970219013335945E-07  3.1449763930789296E-07
  5.7953296785089199E+00  4.7042833732333891E-07  3.0963148956918137E-07
  5.8530668152028316E+00  4.6140767321533391E-07  3.0487308167614676E-07
  5.9113791697253326E+00  4.5263281977279427E-07  3.0022020109358672E-07
  5.9702724727996479E+00  4.4409665065650875E-07  2.9567068633522970E-07
  6.0297525122424807E+00  4.3579228214076590E-07  2.9122242793498070E-07
  6.0898251335328357E+00  4.2771306439785461E-07  2.8687336744002119E-07
  6.1504962403864667E+00  4.1985257309204427E-07  2.8262149638488706E-07
  6.2117717953360776E+00  4.1220460125887970E-07  2.7846485523749777E-07
  6.2736578203173146E+00  4.0476315386998011E-07  2.7440153458261205E-07
  6.3361603972605653E+00  3.9752245317860095E-07  2.7042968585932211E-07
  6.3992856686886670E+00  3.9047691538973782E-07  2.6654750762952910E-07
  6.4630398383205714E+00  3.8362091624376537E-07  2.6275308085594198E-07
  6.5274291716810415E+00  3.7694817508609258E-07  2.5904400392118209E-07
  6.5924599967163768E+00  3.7045199416349247E-07  2.5541756616494570E-07
  6.6581387044163138E+00  3.6412590532980354E-07  2.5187112147901331E-07
  6.7244717494421185E+00  3.5796370731215452E-07  2.4840211234535896E-07
  6.7914656507609168E+00  3.5195945246676079E-07  2.4500806599751001E-07
  6.8591269922863365E+00  3.4610743429113367E-07  2.4168659078025589E-07
  6.9274624235255882E+00  3.4040217565690503E-07  2.3843537270737363E-07
  6.9964786602329339E+00  3.3483841772674519E-07  2.3525217221313843E-07
  7.0661824850696684E+00  3.2941110923212343E-07  2.3213482082115068E-07
  7.1365807482707302E+00  3.2411539864350999E-07  2.2908122008867444E-07
  7.2076803683179032E+00  3.1894661965641067E-07  2.2608933501265322E-07
  7.2794883326197146E+00  3.1390009512525325E-07  2.2315704763006771E-07
  7.3520116981981749E+00  3.0897032010514372E-07  2.2028161904093851E-07
  7.4252575923822954E+00  3.0415063403594019E-07  2.1745953316430114E-07
  7.4992332135085018E+00  2.9943443125778760E-07  2.1468725155888584E-07
  7.5739458316281523E+00  2.9481540534084367E-07  2.1196136200618352E-07
  7.6494027892219023E+00  2.9028753466269104E-07  2.0927857367057882E-07
  7.7256115019213469E+00  2.8584506915620096E-07  2.0663571274865212E-07
  7.8025794592378501E+00  2.8148251830453654E-07  2.0402971867193426E-07
  7.8803142252984824E+00  2.7719464037026950E-07  2.0145764090476017E-07
  7.9588234395894810E+00  2.7297643270498206E-07  1.9891663623723260E-07
  8.0381148177070010E+00  2.6882312295472862E-07  1.9640396644916482E-07
  8.1181961521153507E+00  2.6473016100160620E-07  1.9391699615431751E-07
  8.1990753129128571E+00  2.6069325411077818E-07  1.9145322538336561E-07
  8.2807602486052776E+00  2.5670863536048976E-07  1.8901048689726818E-07
  8.3632589868869367E+00  2.5277344899877982E-07  1.8658719040136802E-07
  8.4465796354296980E+00  2.4888524830249889E-07  1.8418198687184882E-07
  8.5307303826797387E+00  2.4504170925072062E-07  1.8179358858217224E-07
  8.6157194986622532E+00  2.4124062350195008E-07  1.7942076621196862E-07
  8.7015553357942412E+00  2.3747989601190002E-07  1.7706234876399160E-07
  8.7882463297053430E+00  2.3375754282049919E-07  1.7471722354213709E-07
  8.8758010000668257E+00  2.3007168892900231E-07  1.7238433612326105E-07
  8.9642279514289225E+00  2.2642056598879426E-07  1.7006269006595535E-07
  9.0535358740664247E+00  2.2280250959240900E-07  1.6775134617319499E-07
  9.1437335448326973E+00  2.1921595006339711E-07  1.6544941563038962E-07
  9.2348298280223364E+00  2.1565943343559476E-07  1.6315607924080597E-07
  9.3268336762421988E+00  2.1213186177411713E-07  1.6087077652144380E-07
  9.4197541312912847E+00  2.0863312941616826E-07  1.5859364655441402E-07
  9.5136003250493939E+00  2.0516379767030768E-07  1.5632528299802248E-07
  9.6083814803744438E+00  2.0172444707771685E-07  1.5406629726650453E-07
  9.7041069120089674E+00  1.9831563591688925E-07  1.5181729089400326E-07
  9.8007860274954943E+00  1.9493789988025980E-07  1.4957885489019369E-07
