 #p(MeV) \t \delta f_\\nu \t \delta f_\\nubar
  2.5520530920223203E-02  2.6826319507973401E-01  1.6395286281706791E-05
  2.5774784338748535E-02  2.6776660399837704E-01  1.6258658491588611E-05
  2.6031570808056924E-02  2.6734029519556596E-01  1.6122998844278649E-05
  2.6290915564175926E-02  2.6702706775186413E-01  1.5988305131070347E-05
  2.6552844094552046E-02  2.6668536234311013E-01  1.5854575622880200E-05
  2.6817382140555637E-02  2.6614845831264433E-01  1.5721808952522249E-05
  2.7084555700010601E-02  2.6561117759001929E-01  1.5590003972242265E-05
  2.7354391029749379E-02  2.6506207892513239E-01  1.5459159762598674E-05
  2.7626914648193428E-02  2.6461053587757727E-01  1.5329275718706457E-05
  2.7902153337959257E-02  2.6416859923868979E-01  1.5200351221075647E-05
  2.8180134148490611E-02  2.6372883208134462E-01  1.5072384962288767E-05
  2.8460884398716739E-02  2.6324611808905918E-01  1.4945374355384453E-05
  2.8744431679737191E-02  2.6279301825254714E-01  1.4819315266747597E-05
  2.9030803857533451E-02  2.6230145976129227E-01  1.4694202059240818E-05
  2.9320029075707372E-02  2.6183307136075801E-01  1.4570027812525233E-05
  2.9612135758247175E-02  2.6142443978409535E-01  1.4446784600200086E-05
  2.9907152612320711E-02  2.6097616168967730E-01  1.4324463751054504E-05
  3.0205108631096770E-02  2.6057085482647213E-01  1.4203056052793642E-05
  3.0506033096594456E-02  2.6012462583765544E-01  1.4082551987436613E-05
  3.0809955582560822E-02  2.5968758758242977E-01  1.3962941889996010E-05
  3.1116905957377369E-02  2.5925023500978478E-01  1.3844215747386651E-05
  3.1426914386995311E-02  2.5876794935134900E-01  1.3726363100058589E-05
  3.1740011337900213E-02  2.5825041799649812E-01  1.3609373401706896E-05
  3.2056227580106171E-02  2.5773203271492001E-01  1.3493236600316170E-05
  3.2375594190179671E-02  2.5725221111915281E-01  1.3377943599595896E-05
  3.2698142554293805E-02  2.5683937334837198E-01  1.3263486453594648E-05
  3.3023904371312668E-02  2.5642316596671566E-01  1.3149858335080411E-05
  3.3352911655906654E-02  2.5601887772741327E-01  1.3037053381854185E-05
  3.3685196741698807E-02  2.5551522101125662E-01  1.2925066504535305E-05
  3.4020792284442318E-02  2.5498545148990492E-01  1.2813893211706067E-05
  3.4359731265229954E-02  2.5451117051869548E-01  1.2703529422525100E-05
  3.4702046993735185E-02  2.5400741767856061E-01  1.2593971245688126E-05
  3.5047773111485811E-02  2.5355836249698671E-01  1.2485215056337650E-05
  3.5396943595170156E-02  2.5312744785093327E-01  1.2377257781573535E-05
  3.5749592759976058E-02  2.5268954407614169E-01  1.2270096960615902E-05
  3.6105755262963397E-02  2.5222537680208745E-01  1.2163730502904537E-05
  3.6465466106469904E-02  2.5184628755429372E-01  1.2058156336539611E-05
  3.6828760641551155E-02  2.5141825871607232E-01  1.1953372132643113E-05
  3.7195674571454763E-02  2.5098448257053813E-01  1.1849375171780933E-05
  3.7566243955129072E-02  2.5051785322417158E-01  1.1746162323655606E-05
  3.7940505210766938E-02  2.5002462573952372E-01  1.1643730090880705E-05
  3.8318495119384850E-02  2.4957735648593873E-01  1.1542074674759159E-05
  3.8700250828437477E-02  2.4913079642902933E-01  1.1441192043703210E-05
  3.9085809855468570E-02  2.4862148634733022E-01  1.1341078014782363E-05
  3.9475210091797851E-02  2.4819077269824399E-01  1.1241728297570700E-05
  3.9868489806245008E-02  2.4774347090846985E-01  1.1143138551665858E-05
  4.0265687648890505E-02  2.4727625113127424E-01  1.1045304599929554E-05
  4.0666842654873962E-02  2.4684965248353596E-01  1.0948222746398238E-05
  4.1071994248230513E-02  2.4640455087659469E-01  1.0851890033105334E-05
  4.1481182245765094E-02  2.4594120099161174E-01  1.0756304336642940E-05
  4.1894446860965558E-02  2.4546031626151438E-01  1.0661464311563395E-05
  4.2311828707954788E-02  2.4501728510181964E-01  1.0567369245991831E-05
  4.2733368805481925E-02  2.4459914470559493E-01  1.0474018892355408E-05
  4.3159108580953759E-02  2.4419941854604729E-01  1.0381413312136058E-05
  4.3589089874505819E-02  2.4374484534643204E-01  1.0289552749966084E-05
  4.4023354943114511E-02  2.4332378648022682E-01  1.0198437549108234E-05
  4.4461946464749796E-02  2.4284402737861743E-01  1.0108068060653159E-05
  4.4904907542569476E-02  2.4234057672326778E-01  1.0018444366017679E-05
  4.5352281709155284E-02  2.4185860163315667E-01  9.9295657694403754E-06
  4.5804112930791008E-02  2.4138704543766859E-01  9.8414302625113523E-06
  4.6260445611783357E-02  2.4105554285631031E-01  9.7540342009701099E-06
  4.6721324598825928E-02  2.4061966152048120E-01  9.6673722824404783E-06
  4.7186795185406451E-02  2.4016536454634388E-01  9.5814377585464331E-06
  4.7656903116258212E-02  2.3963760919447868E-01  9.4962227565241116E-06
  4.8131694591855484E-02  2.3919931098485492E-01  9.4117186080007519E-06
  4.8611216272954172E-02  2.3866441660174348E-01  9.3279161301943779E-06
  4.9095515285177270E-02  2.3825854381444098E-01  9.2448058453450379E-06
  4.9584639223646226E-02  2.3781424983491434E-01  9.1623781464588884E-06
  5.0078636157658570E-02  2.3734032787409132E-01  9.0806234572015428E-06
  5.0577554635411762E-02  2.3692425328470815E-01  8.9995325519950393E-06
  5.1081443688774451E-02  2.3651538904415523E-01  8.9190970368226542E-06
  5.1590352838105216E-02  2.3614368476228917E-01  8.8393097669842390E-06
  5.2104332097119045E-02  2.3568733979009138E-01  8.7601650216133116E-06
  5.2623431977802712E-02  2.3524421362418024E-01  8.6816584150771476E-06
  5.3147703495378729E-02  2.3477698864334387E-01  8.6037866426423323E-06
  5.3677198173319098E-02  2.3432878512956992E-01  8.5265471765699715E-06
  5.4211968048408707E-02  2.3389329741123044E-01  8.4499379914706772E-06
  5.4752065675859350E-02  2.3342530629556618E-01  8.3739573515236254E-06
  5.5297544134474790E-02  2.3301985952957940E-01  8.2986036598120864E-06
  5.5848457031866916E-02  2.3257714754345274E-01  8.2238753498160548E-06
  5.6404858509724279E-02  2.3213749968343564E-01  8.1497707754822149E-06
  5.6966803249132926E-02  2.3166198407173968E-01  8.0762879701411075E-06
  5.7534346475950120E-02  2.3121330660310715E-01  8.0034242876007429E-06
  5.8107543966231932E-02  2.3075313014779267E-01  7.9311761771834672E-06
  5.8686452051714494E-02  2.3031799090499716E-01  7.8595392398708401E-06
  5.9271127625350278E-02  2.2989341728617904E-01  7.7885085048785184E-06
  5.9861628146899187E-02  2.2948796879946895E-01  7.7180787703276930E-06
  6.0458011648575470E-02  2.2910356202747686E-01  7.6482448815352447E-06
  6.1060336740751106E-02  2.2866983381907499E-01  7.5790019014105821E-06
  6.1668662617715600E-02  2.2822645048325393E-01  7.5103451838198872E-06
  6.2283049063493412E-02  2.2776100799770316E-01  7.4422703812987848E-06
  6.2903556457719514E-02  2.2725885930579787E-01  7.3747734228062522E-06
  6.3530245781572958E-02  2.2679256432804062E-01  7.3078504987409935E-06
  6.4163178623770203E-02  2.2630358967725950E-01  7.2414981396435394E-06
  6.4802417186617542E-02  2.2588526218086091E-01  7.1757133965983903E-06
  6.5448024292124360E-02  2.2547254660043178E-01  7.1104938984714031E-06
  6.6100063388176825E-02  2.2503239624385160E-01  7.0458376349442049E-06
  6.6758598554773493E-02  2.2468491363654552E-01  6.9817425454795910E-06
  6.7423694510322804E-02  2.2425016374897816E-01  6.9182060991832677E-06
  6.8095416618003279E-02  2.2382674034765052E-01  6.8552250160599853E-06
  6.8773830892187277E-02  2.2339946836055735E-01  6.7927951704283035E-06
  6.9459004004928646E-02  2.2295979420022438E-01  6.7309116341945066E-06
  7.0151003292514891E-02  2.2249773428813852E-01  6.6695687987567369E-06
  7.0849896762084918E-02  2.2203846583967596E-01  6.6087605222821449E-06
  7.1555753098312289E-02  2.2163789821049260E-01  6.5484802645454558E-06
  7.2268641670155592E-02  2.2120434910308695E-01  6.4887211555589020E-06
  7.2988632537675471E-02  2.2074998446892663E-01  6.4294759752085512E-06
  7.3715796458920027E-02  2.2028744506848530E-01  6.3707372089329214E-06
  7.4450204896878730E-02  2.1984630652281459E-01  6.3124973377302924E-06
  7.5191930026505358E-02  2.1944462079813912E-01  6.2547493107387084E-06
  7.5941044741811153E-02  2.1901710934515087E-01  6.1974870218740446E-06
  7.6697622663028708E-02  2.1863846108704502E-01  6.1407056230007201E-06
  7.7461738143846867E-02  2.1823920044932207E-01  6.0844016087915138E-06
  7.8233466278718064E-02  2.1781723974433265E-01  6.0285727203660888E-06
  7.9012882910238336E-02  2.1732573458146928E-01  5.9732177476470188E-06
  7.9800064636600887E-02  2.1680339996820219E-01  5.9183362995161457E-06
  8.0595088819123681E-02  2.1631252710243543E-01  5.8639285875404794E-06
  8.1398033589852412E-02  2.1586764600967895E-01  5.8099952628364343E-06
  8.2208977859239071E-02  2.1547810533951564E-01  5.7565373534445468E-06
  8.3028001323896761E-02  2.1512348065311751E-01  5.7035562296693401E-06
  8.3855184474432146E-02  2.1475494557265104E-01  5.6510534469760995E-06
  8.4690608603355796E-02  2.1434868872111093E-01  5.5990304287980363E-06
  8.5534355813071214E-02  2.1393348214814298E-01  5.5474880792622044E-06
  8.6386509023943528E-02  2.1345169889597312E-01  5.4964264586469067E-06
  8.7247151982448798E-02  2.1299093880998338E-01  5.4458446197265270E-06
  8.8116369269404166E-02  2.1258286296998821E-01  5.3957406049099042E-06
  8.8994246308280067E-02  2.1216266058431862E-01  5.3461115533275453E-06
  8.9880869373595462E-02  2.1173129851476427E-01  5.2969538611532220E-06
  9.0776325599396662E-02  2.1130977517896754E-01  5.2482633507947342E-06
  9.1680702987820273E-02  2.1086379456760510E-01  5.2000354171995332E-06
  9.2594090417741887E-02  2.1044190234053711E-01  5.1522650945151930E-06
  9.3516577653510916E-02  2.1005212231728121E-01  5.1049470232983335E-06
  9.4448255353771993E-02  2.0962679571174114E-01  5.0580754143817720E-06
  9.5389215080374679E-02  2.0920528674970695E-01  5.0116441076685957E-06
  9.6339549307372027E-02  2.0875413270017801E-01  4.9656467445740415E-06
  9.7299351430108413E-02  2.0829815912707567E-01  4.9200770009621601E-06
  9.8268715774397927E-02  2.0790076334654947E-01  4.8749287940274970E-06
  9.9247737605794653E-02  2.0746860513419008E-01  4.8301964133309133E-06
  1.0023651313895501E-01  2.0704005606915638E-01  4.7858745728273622E-06
  1.0123513954709307E-01  2.0662066972503171E-01  4.7419584019607656E-06
  1.0224371497153063E-01  2.0619022534314618E-01  4.6984434020363304E-06
  1.0326233853134230E-01  2.0580365362022771E-01  4.6553253900904963E-06
  1.0429111033309621E-01  2.0542263139246641E-01  4.6126004651001887E-06
  1.0533013148069227E-01  2.0500028868879316E-01  4.5702650429399128E-06
  1.0637950408529848E-01  2.0455394873137236E-01  4.5283159262200446E-06
  1.0743933127538580E-01  2.0410003099491766E-01  4.4867503276581809E-06
  1.0850971720686325E-01  2.0364332952977093E-01  4.4455658006280240E-06
  1.0959076707331405E-01  2.0321727728405986E-01  4.4047600907277881E-06
  1.1068258711633375E-01  2.0277630850056363E-01  4.3643309653039555E-06
  1.1178528463597101E-01  2.0236235208718037E-01  4.3242760757223827E-06
  1.1289896800127276E-01  2.0196989809021135E-01  4.2845928745577566E-06
  1.1402374666093455E-01  2.0156272894928914E-01  4.2452785869382142E-06
  1.1515973115405637E-01  2.0118506416566315E-01  4.2063302206330349E-06
  1.1630703312100617E-01  2.0077928501331710E-01  4.1677445968335333E-06
  1.1746576531439171E-01  2.0039686687612729E-01  4.1295183870326115E-06
  1.1863604161014119E-01  1.9999635963117451E-01  4.0916481314460994E-06
  1.1981797701869452E-01  1.9955897561714470E-01  4.0541302466840897E-06
  1.2101168769630628E-01  1.9912600043715922E-01  4.0169610661234261E-06
  1.2221729095646121E-01  1.9866110198144735E-01  3.9801369393945976E-06
  1.2343490528140308E-01  1.9822597416395252E-01  3.9436543769368876E-06
  1.2466465033377878E-01  1.9778394348481751E-01  3.9075101941684136E-06
  1.2590664696839862E-01  1.9738381799270757E-01  3.8717016087493078E-06
  1.2716101724411302E-01  1.9698975259716295E-01  3.8362262751410881E-06
  1.2842788443580819E-01  1.9655817159941472E-01  3.8010822632406565E-06
  1.2970737304652136E-01  1.9615586545313873E-01  3.7662680005197091E-06
  1.3099960881967634E-01  1.9570161446666773E-01  3.7317821996176275E-06
  1.3230471875144070E-01  1.9528836355336474E-01  3.6976237839110555E-06
  1.3362283110320719E-01  1.9484503451662932E-01  3.6637918222816047E-06
  1.3495407541419846E-01  1.9442752374565989E-01  3.6302854854084215E-06
  1.3629858251419752E-01  1.9406215220089115E-01  3.5971040248412909E-06
  1.3765648453640542E-01  1.9371376763457979E-01  3.5642467661124836E-06
  1.3902791493042696E-01  1.9331855982852320E-01  3.5317131011890349E-06
  1.4041300847538526E-01  1.9293826503199843E-01  3.4995024717981823E-06
  1.4181190129316759E-01  1.9250861590626100E-01  3.4676143496850416E-06
  1.4322473086180290E-01  1.9207904188430805E-01  3.4360482166906916E-06
  1.4465163602897282E-01  1.9163473455183261E-01  3.4048035465464370E-06
  1.4609275702565644E-01  1.9120327171658766E-01  3.3738797914052219E-06
  1.4754823547991255E-01  1.9077668487944185E-01  3.3432763731615580E-06
  1.4901821443079799E-01  1.9035834057845621E-01  3.3129926781661296E-06
  1.5050283834242467E-01  1.8994850149638706E-01  3.2830280530592493E-06
  1.5200225311815732E-01  1.8953253570089576E-01  3.2533818373731685E-06
  1.5351660611495255E-01  1.8912657397652613E-01  3.2240535482267798E-06
  1.5504604615783987E-01  1.8874376336137008E-01  3.1950433036265795E-06
  1.5659072355454823E-01  1.8834707298904863E-01  3.1663524418620314E-06
  1.5815079011027761E-01  1.8793244959141525E-01  3.1379841776513166E-06
  1.5972639914261785E-01  1.8754348147314118E-01  3.1099440997738430E-06
  1.6131770549661573E-01  1.8713567740929937E-01  3.0822403790113968E-06
  1.6292486555999330E-01  1.8672459093090868E-01  3.0548836677146535E-06
  1.6454803727851675E-01  1.8629829398067274E-01  3.0278867653227187E-06
  1.6618738017151838E-01  1.8589578176647559E-01  3.0012641622160279E-06
  1.6784305534757410E-01  1.8547610367282691E-01  2.9750315635463838E-06
  1.6951522552033652E-01  1.8506597957714627E-01  2.9492054604678599E-06
  1.7120405502452540E-01  1.8460689327759547E-01  2.9238027723114876E-06
  1.7290970983207837E-01  1.8422803817585859E-01  2.8988404977647419E-06
  1.7463235756846185E-01  1.8384158568113243E-01  2.8743353045754190E-06
  1.7637216752914481E-01  1.8343875909572657E-01  2.8503030405377279E-06
  1.7812931069623586E-01  1.8304459943746787E-01  2.8267582124380742E-06
  1.7990395975528770E-01  1.8266777135832496E-01  2.8037135341389605E-06
  1.8169628911226743E-01  1.8227118454243957E-01  2.7811796745453256E-06
  1.8350647491069666E-01  1.8186909149954117E-01  2.7591652313720571E-06
  1.8533469504896202E-01  1.8140380705937512E-01  2.7376768994723528E-06
  1.8718112919779892E-01  1.8100795808778314E-01  2.7167197667341117E-06
  1.8904595881794839E-01  1.8059736479876279E-01  2.6962976598896963E-06
  1.9092936717799044E-01  1.8016090004075791E-01  2.6764134753736112E-06
  1.9283153937235545E-01  1.7979502325695951E-01  2.6570694733146355E-06
  1.9475266233951422E-01  1.7937426782874166E-01  2.6382676881265216E-06
  1.9669292488034917E-01  1.7903282379889016E-01  2.6200107433878966E-06
  1.9865251767670999E-01  1.7865350422179380E-01  2.6023032149918735E-06
  2.0063163331015252E-01  1.7823808544859782E-01  2.5851534188685260E-06
  2.0263046628086495E-01  1.7787022829571145E-01  2.5685752717084919E-06
  2.0464921302678252E-01  1.7745436508280660E-01  2.5525897564105349E-06
  2.0668807194289332E-01  1.7706216067895841E-01  2.5372256684753710E-06
  2.0874724340073506E-01  1.7667669124457544E-01  2.5225195753962017E-06
  2.1082692976808706E-01  1.7627606588052103E-01  2.5085151396372150E-06
  2.1292733542885869E-01  1.7587903976843336E-01  2.4952620782160594E-06
  2.1504866680317505E-01  1.7546817487614250E-01  2.4828150311622557E-06
  2.1719113236766269E-01  1.7510956657041923E-01  2.4712325433134112E-06
  2.1935494267593900E-01  1.7474710836931973E-01  2.4605761932181484E-06
  2.2154031037930411E-01  1.7437311505073841E-01  2.4509096682943838E-06
  2.2374745024763915E-01  1.7400154774029392E-01  2.4422976263910192E-06
  2.2597657919051337E-01  1.7364877583733757E-01  2.4348042926431177E-06
  2.2822791627850159E-01  1.7328167294782612E-01  2.4284918845447624E-06
  2.3050168276471292E-01  1.7294444783857868E-01  2.4234192218060303E-06
  2.3279810210653490E-01  1.7259420627776756E-01  2.4196408933407161E-06
  2.3511739998759476E-01  1.7224776481796580E-01  2.4172070988365133E-06
  2.3745980433993777E-01  1.7188006490043534E-01  2.4161641522154266E-06
  2.3982554536642792E-01  1.7152527948685722E-01  2.4165554788982098E-06
  2.4221485556337191E-01  1.7114172441854039E-01  2.4184228755991073E-06
  2.4462796974336751E-01  1.7076814347353725E-01  2.4218078302480545E-06
  2.4706512505838005E-01  1.7039031790718465E-01  2.4267527181206154E-06
  2.4952656102304882E-01  1.7002051624949518E-01  2.4333017117914045E-06
  2.5201251953822634E-01  1.6964161268362746E-01  2.4415012018939330E-06
  2.5452324491475065E-01  1.6933800691332279E-01  2.4513996509716316E-06
  2.5705898389745541E-01  1.6902041037552928E-01  2.4630469889320528E-06
  2.5961998568941974E-01  1.6872749872088150E-01  2.4764937686519314E-06
  2.6220650197645867E-01  1.6841889360002432E-01  2.4917902699715868E-06
  2.6481878695185673E-01  1.6812585945980224E-01  2.5089858797109640E-06
  2.6745709734135115E-01  1.6777372392219539E-01  2.5281289234230459E-06
  2.7012169242836076E-01  1.6746929717581135E-01  2.5492669527865830E-06
  2.7281283407946699E-01  1.6710982712488243E-01  2.5724473767096150E-06
  2.7553078677015025E-01  1.6680699249151507E-01  2.5977182759035458E-06
  2.7827581761078118E-01  1.6647341120372097E-01  2.6251292341702494E-06
  2.8104819637287048E-01  1.6613292566062313E-01  2.6547319718145274E-06
  2.8384819551558238E-01  1.6581923964122008E-01  2.6865804205315140E-06
  2.8667609021251045E-01  1.6550367093690060E-01  2.7207298822172557E-06
  2.8953215837871926E-01  1.6520185895715922E-01  2.7572351139217784E-06
  2.9241668069806004E-01  1.6487314976336734E-01  2.7961474569901303E-06
  2.9532994065075180E-01  1.6456307689900457E-01  2.8375112718190566E-06
  2.9827222454124180E-01  1.6426661335920062E-01  2.8813602831147358E-06
  3.0124382152634510E-01  1.6394977643278955E-01  2.9277144676488006E-06
  3.0424502364365730E-01  1.6362067062582078E-01  2.9765778751744209E-06
  3.0727612584025848E-01  1.6332004799321378E-01  3.0279374675103110E-06
  3.1033742600169834E-01  1.6300688149251444E-01  3.0817627879566840E-06
  3.1342922498127029E-01  1.6266125172067086E-01  3.1380060941114074E-06
  3.1655182662958009E-01  1.6234129655865442E-01  3.1966026472793743E-06
  3.1970553782440619E-01  1.6200679668983581E-01  3.2574711048789872E-06
  3.2289066850085768E-01  1.6170523435465253E-01  3.3205139518540749E-06
  3.2610753168183537E-01  1.6138559669893504E-01  3.3856181635045400E-06
  3.2935644350879373E-01  1.6107568789653934E-01  3.4526564618472484E-06
  3.3263772327280894E-01  1.6076772353030933E-01  3.5214889814033954E-06
  3.3595169344595971E-01  1.6045497045661264E-01  3.5919650040246298E-06
  3.3929867971301769E-01  1.6009485777951979E-01  3.6639245746750837E-06
  3.4267901100345338E-01  1.5980079129245300E-01  3.7371995888539352E-06
  3.4609301952376442E-01  1.5943339021227904E-01  3.8116140739534654E-06
  3.4954104079012244E-01  1.5908085777592082E-01  3.8869836180697556E-06
  3.5302341366134482E-01  1.5874113345538390E-01  3.9631141219209062E-06
  3.5654048037220065E-01  1.5838976360088725E-01  4.0398002395827193E-06
  3.6009258656703952E-01  1.5804650470229320E-01  4.1168238850503360E-06
  3.6368008133376223E-01  1.5770700573016497E-01  4.1939534102345521E-06
  3.6730331723813020E-01  1.5737753737646235E-01  4.2709439735438123E-06
  3.7096265035840953E-01  1.5703858878488899E-01  4.3475394083262941E-06
  3.7465844032036905E-01  1.5665366709400122E-01  4.4234757800594760E-06
  3.7839105033262166E-01  1.5634344106091497E-01  4.4984866370034838E-06
