 #p(MeV) \t \delta f_\\nu \t \delta f_\\nubar
  8.9237238929312623E-01  1.0384250712473686E-05  2.9990080797251370E-06
  9.0126282857452866E-01  1.0079223104056987E-05  2.9521877739423389E-06
  9.1024184064411251E-01  9.7849007207726950E-06  2.9060200669914507E-06
  9.1931030792608293E-01  9.5008242723562236E-06  2.8604974382446509E-06
  9.2846912163597140E-01  9.2265585135008028E-06  2.8156124332892540E-06
  9.3771918186822523E-01  8.9616907697279536E-06  2.7713576924703609E-06
  9.4706139768466202E-01  8.7058295114759374E-06  2.7277259197425381E-06
  9.5649668720381076E-01  8.4586033878582454E-06  2.6847099643770085E-06
  9.6602597769114207E-01  8.2196602787181505E-06  2.6423028724384085E-06
  9.7565020565019311E-01  7.9886655726027456E-06  2.6004977511842101E-06
  9.8537031691460786E-01  7.7653010200508464E-06  2.5592877470055141E-06
  9.9518726674108660E-01  7.5492637777162554E-06  2.5186660460702787E-06
  1.0051020199032665E+00  7.3402655178529004E-06  2.4786258749480720E-06
  1.0151155507865373E+00  7.1380315980221166E-06  2.4391605012134083E-06
  1.0252288434837971E+00  6.9423002863540513E-06  2.4002632340277678E-06
  1.0354428918921699E+00  6.7528220380944785E-06  2.3619274246927147E-06
  1.0457586998106769E+00  6.5693588168747418E-06  2.3241464646691767E-06
  1.0561772810388896E+00  6.3916834442437157E-06  2.2869137687500062E-06
  1.0666996594765628E+00  6.2195790972586182E-06  2.2502228379943377E-06
  1.0773268692242564E+00  6.0528387606579717E-06  2.2140672922104589E-06
  1.0880599546849670E+00  5.8912641957060524E-06  2.1784406857591959E-06
  1.0988999706667644E+00  5.7346657281588937E-06  2.1433365668605183E-06
  1.1098479824864556E+00  5.5828620132764230E-06  2.1087485313056936E-06
  1.1209050660742825E+00  5.4356796041238705E-06  2.0746702234422095E-06
  1.1320723080796553E+00  5.2929525434879590E-06  2.0410953365408579E-06
  1.1433508059779505E+00  5.1545219803871805E-06  2.0080176131402707E-06
  1.1547416681783615E+00  5.0202358094798107E-06  1.9754308453693349E-06
  1.1662460141328310E+00  4.8899483318065817E-06  1.9433288752496303E-06
  1.1778649744460681E+00  4.7635199359616562E-06  1.9117055954926326E-06
  1.1895996909866571E+00  4.6408168069013886E-06  1.8805549588431988E-06
  1.2014513169992789E+00  4.5217105980621933E-06  1.8498709464103749E-06
  1.2134210172180453E+00  4.4060780181828496E-06  1.8196474688935517E-06
  1.2255099679809656E+00  4.2938008522595804E-06  1.7898784887149294E-06
  1.2377193573455545E+00  4.1847658314842847E-06  1.7605580851797372E-06
  1.2500503852055860E+00  4.0788642042397131E-06  1.7316803987544850E-06
  1.2625042634090200E+00  3.9759915116093953E-06  1.7032396271979557E-06
  1.2750822158770927E+00  3.8760473882633885E-06  1.6752300253666834E-06
  1.2877854787246024E+00  3.7789353740724968E-06  1.6476459050152676E-06
  1.3006153003813905E+00  3.6845627357899436E-06  1.6204816345915357E-06
  1.3135729417150308E+00  3.5928402981849861E-06  1.5937316390265278E-06
  1.3266596761547422E+00  3.5036822839688234E-06  1.5673903994353011E-06
  1.3398767898165416E+00  3.4170061591264439E-06  1.5414524500271409E-06
  1.3532255816296317E+00  3.3327324872289705E-06  1.5159123756829560E-06
  1.3667073634640614E+00  3.2507848186442444E-06  1.4907648315048018E-06
  1.3803234602596459E+00  3.1710895500060639E-06  1.4660045370250030E-06
  1.3940752101561822E+00  3.0935757773601877E-06  1.4416262614794147E-06
  1.4079639646249522E+00  3.0181751917391418E-06  1.4176248276144510E-06
  1.4219910886015417E+00  2.9448219700373203E-06  1.3939951120960895E-06
  1.4361579606199841E+00  2.8734526695451020E-06  1.3707320452870924E-06
  1.4504659729482328E+00  2.8040061276596956E-06  1.3478306110184850E-06
  1.4649165317249904E+00  2.7364233664825492E-06  1.3252858463553544E-06
  1.4795110570979011E+00  2.6706475020314182E-06  1.3030928413570873E-06
  1.4942509833631132E+00  2.6066236578302286E-06  1.2812467388495093E-06
  1.5091377591062407E+00  2.5442988832632555E-06  1.2597427348158714E-06
  1.5241728473447205E+00  2.4836220766631436E-06  1.2385760794332625E-06
  1.5393577256715971E+00  2.4245439263225172E-06  1.2177420886596773E-06
  1.5546938864007314E+00  2.3670167930336626E-06  1.1972361248143575E-06
  1.5701828367134607E+00  2.3109944480226464E-06  1.1770535107394859E-06
  1.5858260988067208E+00  2.2564321698539225E-06  1.1571895927005433E-06
  1.6016252100426391E+00  2.2032867731315878E-06  1.1376397743107120E-06
  1.6175817230996221E+00  2.1515165480117614E-06  1.1183995162774299E-06
  1.6336972061249486E+00  2.1010812017832234E-06  1.0994643358934124E-06
  1.6499732428888771E+00  2.0519418031086514E-06  1.0808298065277864E-06
  1.6664114329402999E+00  2.0040607287886718E-06  1.0624915571174237E-06
  1.6830133917639309E+00  1.9574016129163139E-06  1.0444452716559143E-06
  1.6997807509390803E+00  1.9119292981478988E-06  1.0266866885322808E-06
  1.7167151582999929E+00  1.8676097912603108E-06  1.0092116018254233E-06
  1.7338182780977920E+00  1.8244102278432272E-06  9.9201586835267398E-07
  1.7510917911640402E+00  1.7822989172267084E-06  9.7509545683573080E-07
  1.7685373950759204E+00  1.7412456349134366E-06  9.5844660177527101E-07
  1.7861568043230689E+00  1.7012213788405438E-06  9.4206569464089172E-07
  1.8039517504760720E+00  1.6621980425914213E-06  9.2594915650943824E-07
  1.8219239823566331E+00  1.6241483724247603E-06  9.1009343363190540E-07
  1.8400752662094462E+00  1.5870459378572686E-06  8.9449499795403664E-07
  1.8584073858757697E+00  1.5508651034187023E-06  8.7915034761125992E-07
  1.8769221429687428E+00  1.5155810015252588E-06  8.6405600739840268E-07
  1.8956213570504352E+00  1.4811695064203128E-06  8.4920852921471965E-07
  1.9145068658106683E+00  1.4476072091390743E-06  8.3460449248952248E-07
  1.9335805252476224E+00  1.4148713921062605E-06  8.2024050332507575E-07
  1.9528442098502274E+00  1.3829399943893412E-06  8.0611318465422418E-07
  1.9722998127823885E+00  1.3517915196366060E-06  7.9221912859811267E-07
  1.9919492460690378E+00  1.3214046948009605E-06  7.7855472496215778E-07
  2.0117944407840369E+00  1.2917584618364184E-06  7.6511619293908612E-07
  2.0318373472399633E+00  1.2628323835196512E-06  7.5189979398030653E-07
  2.0520799351797701E+00  1.2346066709571901E-06  7.3890185449179610E-07
  2.0725241939703758E+00  1.2070621600879834E-06  7.2611876462583242E-07
  2.0931721327981636E+00  1.1801802891488056E-06  7.1354697709663510E-07
  2.1140257808664389E+00  1.1539430770583122E-06  7.0118300601939561E-07
  2.1350871875948565E+00  1.1283331026777613E-06  6.8902342577220642E-07
  2.1563584228208237E+00  1.1033334849153330E-06  6.7706486988695465E-07
  2.1778415770029178E+00  1.0789278643152985E-06  6.6530403062138127E-07
  2.1995387614263349E+00  1.0551003915463702E-06  6.5373766415951496E-07
  2.2214521084103676E+00  1.0318357448839698E-06  6.4236261682460256E-07
  2.2435837715179749E+00  1.0091192969169207E-06  6.3117593773217840E-07
  2.2659359257674128E+00  9.8693723589555279E-07  6.2017493681076621E-07
  2.2885107678459997E+00  9.6527622090130385E-07  6.0935699739687370E-07
  2.3113105163259888E+00  9.4412327006854478E-07  5.9871952480550416E-07
  2.3343374118826064E+00  9.2346574953223483E-07  5.8825994645041466E-07
  2.3575937175142583E+00  9.0329136311320342E-07  5.7797571212533652E-07
  2.3810817187649236E+00  8.8358814235180081E-07  5.6786429426642422E-07
  2.4048037239487736E+00  8.6434443687631463E-07  5.5792318819638113E-07
  2.4287620643770249E+00  8.4554890509221398E-07  5.4814991234983371E-07
  2.4529590945870483E+00  8.2719050497286050E-07  5.3854200827988979E-07
  2.4773971925737697E+00  8.0925848254762446E-07  5.2909703819464308E-07
  2.5020787600233629E+00  7.9174234968688746E-07  5.1981257347709762E-07
  2.5270062225492875E+00  7.7463179711324280E-07  5.1068613956376845E-07
  2.5521820299306617E+00  7.5791655482258492E-07  5.0171514275686447E-07
  2.5776086563530205E+00  7.4158653520675470E-07  4.9289696823743338E-07
  2.6032886006514722E+00  7.2563193696132819E-07  4.8422904378234320E-07
  2.6292243865562694E+00  7.1004323891833143E-07  4.7570884070578898E-07
  2.6554185629408344E+00  6.9481119103146488E-07  4.6733387311041420E-07
  2.6818737040722569E+00  6.7992680568645602E-07  4.5910169715159274E-07
  2.7085924098642757E+00  6.6538134932348910E-07  4.5100991031463897E-07
  2.7355773061327939E+00  6.5116633435931674E-07  4.4305615070478849E-07
  2.7628310448539346E+00  6.3727351142579909E-07  4.3523809637746906E-07
  2.7903563044246660E+00  6.2369486269413879E-07  4.2755346545753338E-07
  2.8181557899260237E+00  6.1042259919278717E-07  4.2000001955089368E-07
  2.8462322333889540E+00  5.9744918710467666E-07  4.1257558868601430E-07
  2.8745883940628172E+00  5.8476744799894277E-07  4.0527813982668850E-07
  2.9032270586865438E+00  5.7237051526347976E-07  3.9810574511973031E-07
  2.9321510417625123E+00  5.6025170356921269E-07  3.9105650421712740E-07
  2.9613631858331502E+00  5.4840449280516072E-07  3.8412853757237979E-07
  2.9908663617602822E+00  5.3682252368510625E-07  3.7731998646498286E-07
  3.0206634690072693E+00  5.2549959348413025E-07  3.7062901301536957E-07
  3.0507574359239631E+00  5.1442965190062672E-07  3.6405380019061312E-07
  3.0811512200344882E+00  5.0360679703957499E-07  3.5759255180118523E-07
  3.1118478083278958E+00  4.9302527151303977E-07  3.5124349248911857E-07
  3.1428502175517150E+00  4.8267945851265036E-07  3.4500486757175402E-07
  3.1741614945084340E+00  4.7256387671818486E-07  3.3887494168998086E-07
  3.2057847163549176E+00  4.6267316456505641E-07  3.3285198883843618E-07
  3.2377229909048233E+00  4.5300199674786760E-07  3.2693423527040948E-07
  3.2699794569340348E+00  4.4354502990007954E-07  3.2111983078199995E-07
  3.3025572844891142E+00  4.3429703370972218E-07  3.1540693814661224E-07
  3.3354596751988490E+00  4.2525292121554345E-07  3.0979375430038624E-07
  3.3686898625889019E+00  4.1640774446264408E-07  3.0427850971095315E-07
  3.4022511123995853E+00  4.0775669024451179E-07  2.9885946772122128E-07
  3.4361467229067997E+00  3.9929507599021175E-07  2.9353492390655117E-07
  3.4703800252461847E+00  3.9101834579125704E-07  2.8830320544503618E-07
  3.5049543837404937E+00  3.8292206656241534E-07  2.8316267050011848E-07
  3.5398731962302135E+00  3.7500192434502415E-07  2.7811170762838457E-07
  3.5751398944075024E+00  3.6725372144855096E-07  2.7314873588306890E-07
  3.6107579441534461E+00  3.5967337563115808E-07  2.6827220651761963E-07
  3.6467308458786625E+00  3.5225694846438163E-07  2.6348062658979610E-07
  3.6830621348673112E+00  3.4500071029318977E-07  2.5877260473675328E-07
  3.7197553816245379E+00  3.3790106881435234E-07  2.5414680147873701E-07
  3.7568141922273610E+00  3.3095451680722309E-07  2.4960189560596054E-07
  3.7942422086790635E+00  3.2415762893411448E-07  2.4513658334402257E-07
  3.8320431092671172E+00  3.1750705971485564E-07  2.4074957823706492E-07
  3.8702206089246789E+00  3.1099954155589782E-07  2.3643961102816428E-07
  3.9087784595956676E+00  3.0463188283230606E-07  2.3220542953709134E-07
  3.9477204506034957E+00  2.9840096602107887E-07  2.2804579853559308E-07
  3.9870504090234804E+00  2.9230374588742638E-07  2.2395949962330469E-07
  4.0267722000589385E+00  2.8633724735183920E-07  2.1994533074655952E-07
  4.0668897274210511E+00  2.8049856365192566E-07  2.1600210593681528E-07
  4.1074069337125128E+00  2.7478485326099711E-07  2.1212865428714229E-07
  4.1483278008149886E+00  2.6919331742698074E-07  2.0832380431143322E-07
  4.1896563502804343E+00  2.6372120224792729E-07  2.0458638692743864E-07
  4.2313966437263284E+00  2.5836581833391630E-07  2.0091525034873607E-07
  4.2735527832348330E+00  2.5312454080829695E-07  1.9730926101587099E-07
  4.3161289117559241E+00  2.4799480763645802E-07  1.9376730335050825E-07
  4.3591292135145494E+00  2.4297411800201892E-07  1.9028827951169008E-07
  4.4025579144218439E+00  2.3806003072895780E-07  1.8687110915422070E-07
  4.4464192824904254E+00  2.3325016274823979E-07  1.8351472918919411E-07
  4.4907176282538446E+00  2.2854218760142844E-07  1.8021809354083324E-07
  4.5354573051902154E+00  2.2393383405938819E-07  1.7698017297684861E-07
  4.5806427101500544E+00  2.1942288474373132E-07  1.7379995491824213E-07
  4.6262782837883698E+00  2.1500717097373883E-07  1.7067643981343559E-07
  4.6723685110011024E+00  2.1068456824762747E-07  1.6760863832400009E-07
  4.7189179213658674E+00  2.0645300031973271E-07  1.6459557570015809E-07
  4.7659310895871041E+00  2.0231044046734834E-07  1.6163629363508858E-07
  4.8134126359456637E+00  1.9825491016517655E-07  1.5872984997860954E-07
  4.8613672267528809E+00  1.9428447784784240E-07  1.5587531848288536E-07
  4.9097995748091465E+00  1.9039725770726834E-07  1.5307178855182212E-07
  4.9587144398670739E+00  1.8659140852357704E-07  1.5031836499393004E-07
  5.0081166290992742E+00  1.8286513252851025E-07  1.4761416777861946E-07
  5.0580109975707819E+00  1.7921667430288378E-07  1.4495833179828557E-07
  5.1084024487161797E+00  1.7564431976646071E-07  1.4235000669289449E-07
  5.1592959348215164E+00  1.7214639532370618E-07  1.3978835679791796E-07
  5.2106964575109860E+00  1.6872126745076257E-07  1.3727256148837446E-07
  5.2626090682384605E+00  1.6536734034872758E-07  1.3480181364384817E-07
  5.3150388687839367E+00  1.6208306380385121E-07  1.3237532598352260E-07
  5.3679910117549312E+00  1.5886692951853273E-07  1.2999232901771283E-07
  5.4214707010928365E+00  1.5571746353876629E-07  1.2765206590232745E-07
  5.4754831925843606E+00  1.5263322528156604E-07  1.2535379214654396E-07
  5.5300337943780455E+00  1.4961280673769724E-07  1.2309677543542278E-07
  5.5851278675059337E+00  1.4665483169479167E-07  1.2088029545445630E-07
  5.6407708264104102E+00  1.4375795498028306E-07  1.1870364371604211E-07
  5.6969681394763487E+00  1.4092086172343498E-07  1.1656612338771439E-07
  5.7537253295685025E+00  1.3814226659465837E-07  1.1446704908283529E-07
  5.8110479745742660E+00  1.3542091287052663E-07  1.1240574646717088E-07
  5.8689417079518647E+00  1.3275557133718355E-07  1.1038155170443841E-07
  5.9274122192839869E+00  1.3014503935289414E-07  1.0839381108013983E-07
  5.9864652548369239E+00  1.2758813490195258E-07  1.0644187681707737E-07
  6.0461066181253029E+00  1.2508369485810995E-07  1.0452510606734934E-07
  6.1063421704824350E+00  1.2263058235237410E-07  1.0264286690140936E-07
  6.1671778316363479E+00  1.2022768679595401E-07  1.0079453863817515E-07
  6.2286195802915287E+00  1.1787392322708624E-07  9.8979511649391696E-08
  6.2906734547165293E+00  1.1556823167541463E-07  9.7197187167247777E-08
  6.3533455533373617E+00  1.1330957654341765E-07  9.5446977095196991E-08
  6.4166420353368299E+00  1.1109694600438538E-07  9.3728303821933923E-08
  6.4805691212598289E+00  1.0892935142291741E-07  9.2040600044513092E-08
  6.5451330936246954E+00  1.0680582688048027E-07  9.0383308680543144E-08
  6.6103402975406089E+00  1.0472542856340735E-07  8.8755882645133393E-08
  6.6761971413311718E+00  1.0268722847654352E-07  8.7157779464122847E-08
  6.7427100971642089E+00  1.0069031268547351E-07  8.5588459483647961E-08
  6.8098857016878140E+00  9.8733807714589199E-08  8.4047408142464201E-08
  6.8777305566727396E+00  9.6816864870708930E-08  8.2534124227979132E-08
  6.9462513296612194E+00  9.4938653958630000E-08  8.1048115139026951E-08
  7.0154547546222181E+00  9.3098362865662200E-08  7.9588896746716128E-08
  7.0853476326132103E+00  9.1295197157529134E-08  7.8155993258793979E-08
  7.1559368324485728E+00  8.9528379683854847E-08  7.6748937086285543E-08
  7.2272292913746385E+00  8.7797150192966603E-08  7.5367268712336585E-08
  7.2992320157514383E+00  8.6100764956429187E-08  7.4010536563856583E-08
  7.3719520817412736E+00  8.4438496437345071E-08  7.2678296918556210E-08
  7.4453966360041433E+00  8.2809632882966613E-08  7.1370113732745302E-08
  7.5195728964000859E+00  8.1213478998474988E-08  7.0085559450719742E-08
  7.5944881526984975E+00  7.9649359221089502E-08  6.8824218292040686E-08
  7.6701497672945917E+00  7.8116600071699674E-08  6.7585671716926891E-08
  7.7465651759329202E+00  7.6614534319564188E-08  6.6369501598225471E-08
  7.8237418884381249E+00  7.5142509908266209E-08  6.5175297574013825E-08
  7.9016874894529856E+00  7.3699889721327513E-08  6.4002657012513794E-08
  7.9804096391838231E+00  7.2286051211765638E-08  6.2851184862721735E-08
  8.0599160741532909E+00  7.0900386041565459E-08  6.1720493507969524E-08
  8.1402146079607025E+00  6.9542299730778629E-08  6.0610202622356177E-08
  8.2213131320499411E+00  6.8211211315915998E-08  5.9519939029941870E-08
  8.3032196164849701E+00  6.6906552974259990E-08  5.8449336525835682E-08
  8.3859421107331169E+00  6.5627769604621335E-08  5.7398035650115227E-08
  8.4694887444561537E+00  6.4374320778719238E-08  5.6365685680114046E-08
  8.5538677283092444E+00  6.3145693184076935E-08  5.5351956167549044E-08
  8.6390873547478453E+00  6.1941399032396737E-08  5.4356535551117748E-08
  8.7251559988426628E+00  6.0760958356731635E-08  5.3379115490758923E-08
  8.8120821191027492E+00  5.9603900027740478E-08  5.2419391630431737E-08
  8.8998742583067347E+00  5.8469761975873408E-08  5.1477063890679300E-08
  8.9885410443423979E+00  5.7358091020420233E-08  5.0551836435294383E-08
  9.0780911910545985E+00  5.6268442702191213E-08  4.9643417637602609E-08
  9.1685334991016241E+00  5.5200381119717258E-08  4.8751520046371948E-08
  9.2598768568200658E+00  5.4153478768859451E-08  4.7875860351357935E-08
  9.3521302410983829E+00  5.3127316396824650E-08  4.7016159358908106E-08
  9.4453027182590859E+00  5.2121482877622234E-08  4.6172141983407025E-08
  9.5394034449497251E+00  5.1135574826343915E-08  4.5343536987528413E-08
  9.6344416690428094E+00  5.0169198521762920E-08  4.4530078838338181E-08
  9.7304267305446484E+00  4.9221970805087511E-08  4.3731508894205191E-08
  9.8273680625132034E+00  4.8293504793135628E-08  4.2947563018784039E-08
  9.9252751919852056E+00  4.7383418763681202E-08  4.2177978999604375E-08
  1.0024157740912404E+01  4.6491338834966147E-08  4.1422498888139422E-08
  1.0124025427107133E+01  4.5616898801663075E-08  4.0680868946742069E-08
  1.0224888065197463E+01  4.4759739975329419E-08  3.9952839596396718E-08
  1.0326755567591601E+01  4.3919511029202339E-08  3.9238165365267712E-08
  1.0429637945452113E+01  4.3095867847133114E-08  3.8536604837975375E-08
  1.0533545309679850E+01  4.2288473375542106E-08  3.7847920604693509E-08
  1.0638487871907472E+01  4.1496997554945712E-08  3.7171879283854321E-08
  1.0744475945503119E+01  4.0721117261036733E-08  3.6508251549141157E-08
  1.0851519946583942E+01  3.9960516149010123E-08  3.5856812065981062E-08
  1.0959630395039712E+01  3.9214883850158449E-08  3.5217338786687460E-08
  1.1068817915566752E+01  3.8483921245372488E-08  3.4589617572384256E-08
  1.1179093238712062E+01  3.7767337964462301E-08  3.3973440177012062E-08
  1.1290467201927830E+01  3.7064849267207187E-08  3.3368601632229476E-08
  1.1402950750636583E+01  3.6376175914844771E-08  3.2774900190730950E-08
  1.1516554939306815E+01  3.5701044074277309E-08  3.2192137295776085E-08
  1.1631290932539351E+01  3.5039185223794849E-08  3.1620117550364841E-08
  1.1747170006164627E+01  3.4390336060278809E-08  3.1058648686076941E-08
  1.1864203548350813E+01  3.3754238407920766E-08  3.0507541531652677E-08
  1.1982403060722950E+01  3.3130639067176616E-08  2.9966609922909799E-08
  1.2101780159493371E+01  3.2519289342951290E-08  2.9435670306079386E-08
  1.2222346576603259E+01  3.1919944059366414E-08  2.8914540860390978E-08
  1.2344114160875565E+01  3.1332353943187289E-08  2.8403034443879116E-08
  1.2467094879179614E+01  3.0756269880861912E-08  2.7900962461285948E-08
  1.2591300817606992E+01  3.0191452426336876E-08  2.7408143656941630E-08
  1.2716744182659406E+01  2.9637667768550603E-08  2.6924400699126130E-08
  1.2843437302448356E+01  2.9094687263757086E-08  2.6449559806175155E-08
  1.2971392627906553E+01  2.8562287312570417E-08  2.5983450670826281E-08
  1.3100622734011671E+01  2.8040249240208626E-08  2.5525906386342523E-08
  1.3231140321022130E+01  2.7528359179847563E-08  2.5076763374366994E-08
