 #p(MeV) \t \delta f_\\nu \t \delta f_\\nubar
  2.2870294700819080E+00  8.3989532784602794E-09  8.0871105462202060E-09
  2.3098144608352049E+00  8.2389458666040265E-09  7.9348798542847626E-09
  2.3328264516383115E+00  8.0820422015613425E-09  7.7855443211074288E-09
  2.3560677040248499E+00  7.9281791288181031E-09  7.6390466720984433E-09
  2.3795405020594207E+00  7.7772967456069002E-09  7.4953326344256098E-09
  2.4032471525620824E+00  7.6293386114994024E-09  7.3543511429195502E-09
  2.4271899853350472E+00  7.4842494338105008E-09  7.2160521284190654E-09
  2.4513713533916510E+00  7.3419748958355087E-09  7.0803863567041155E-09
  2.4757936331876018E+00  7.2024616419848726E-09  6.9473054173061825E-09
  2.5004592248545197E+00  7.0656572630761019E-09  6.8167617123862108E-09
  2.5253705524358230E+00  6.9315102817827804E-09  6.6887084456822265E-09
  2.5505300641249478E+00  6.7999701382411959E-09  6.5630996115288001E-09
  2.5759402325059471E+00  6.6709871758147004E-09  6.4398899839503889E-09
  2.6016035547964949E+00  6.5445126270157504E-09  6.3190351058304427E-09
  2.6275225530932924E+00  6.4204985995858851E-09  6.2004912781582119E-09
  2.6536997746199416E+00  6.2988980547450914E-09  6.0842155415775297E-09
  2.6801377919772675E+00  6.1796640350675000E-09  5.9701649347071993E-09
  2.7068392033961475E+00  6.0627484937099568E-09  5.8582953705270859E-09
  2.7338066329928603E+00  5.9481040640182586E-09  5.7485633404882903E-09
  2.7610427310269663E+00  5.8356844105163024E-09  5.6409262541413950E-09
  2.7885501741617738E+00  5.7254442048968564E-09  5.5353424185748605E-09
  2.8163316657273825E+00  5.6173391026103898E-09  5.4317710183423521E-09
  2.8443899359863631E+00  5.5113257200358821E-09  5.3301720958662632E-09
  2.8727277424020801E+00  5.4073616122181958E-09  5.2305065323056816E-09
  2.9013478699096726E+00  5.3054052511570184E-09  5.1327360288770462E-09
  2.9302531311897648E+00  5.2054160046326014E-09  5.0368230886160316E-09
  2.9594463669448716E+00  5.1073541155542995E-09  4.9427309985697123E-09
  2.9889304461785766E+00  5.0111806836802566E-09  4.8504238142204778E-09
  3.0187082664774931E+00  4.9168579269651579E-09  4.7598666145802732E-09
  3.0487827542960186E+00  4.8243504267978484E-09  4.6710267064666742E-09
  3.0791568652439447E+00  4.7336240699724435E-09  4.5838726045121840E-09
  3.1098335843769171E+00  4.6446453455630915E-09  4.4983733549696902E-09
  3.1408159264897968E+00  4.5573813315844464E-09  4.4144985243825142E-09
  3.1721069364129506E+00  4.4717996860816168E-09  4.3322181924684581E-09
  3.2037096893114709E+00  4.3878686383118284E-09  4.2515029450513152E-09
  3.2356272909874106E+00  4.3055569800179833E-09  4.1723238670409479E-09
  3.2678628781849910E+00  4.2248340567945821E-09  4.0946525354633319E-09
  3.3004196188988812E+00  4.1456697595460739E-09  4.0184610125416319E-09
  3.3333007126855376E+00  4.0680345160379045E-09  3.9437218388295490E-09
  3.3665093909776358E+00  3.9918992824720176E-09  3.8704080263318351E-09
  3.4000489174016484E+00  3.9172354593305148E-09  3.7984929780657099E-09
  3.4339225880985889E+00  3.8440139681972810E-09  3.7279495956620647E-09
  3.4681337320479306E+00  3.7722054011421411E-09  3.6587504257003537E-09
  3.5026857113947809E+00  3.7017809484098378E-09  3.5908685575300935E-09
  3.5375819217802871E+00  3.6327124289860629E-09  3.5242776539813338E-09
  3.5728257926753595E+00  3.5649722758844793E-09  3.4589519383335800E-09
  3.6084207877176984E+00  3.4985335218033223E-09  3.3948661816007531E-09
  3.6443704050521886E+00  3.4333697851413774E-09  3.3319956901239630E-09
  3.6806781776746935E+00  3.3694552563638220E-09  3.2703162934640630E-09
  3.7173476737792521E+00  3.3067646847083960E-09  3.2098043325863579E-09
  3.7543824971087534E+00  3.2452733652228659E-09  3.1504366483297725E-09
  3.7917862873091033E+00  3.1849571261248581E-09  3.0921905701532258E-09
  3.8295627202869067E+00  3.1257923342758385E-09  3.0350439224779945E-09
  3.8677155085707335E+00  3.0677563872994170E-09  2.9789755033479070E-09
  3.9062484016759567E+00  3.0108280990386112E-09  2.9239654581742133E-09
  3.9451651864732589E+00  2.9549867913514919E-09  2.8699944005858611E-09
  3.9844696875607775E+00  2.9002121468288949E-09  2.8170432706586131E-09
  4.0241657676399765E+00  2.8464842033855890E-09  2.7650933303999391E-09
  4.0642573278952652E+00  2.7937833489068536E-09  2.7141261592670459E-09
  4.1047483083773812E+00  2.7420903159507294E-09  2.6641236497187491E-09
  4.1456426883906108E+00  2.6913861765059027E-09  2.6150680028017823E-09
  4.1869444868838634E+00  2.6416523368053854E-09  2.5669417237720690E-09
  4.2286577628456250E+00  2.5928705321960442E-09  2.5197276177515623E-09
  4.2707866157028844E+00  2.5450228220639986E-09  2.4734087854211163E-09
  4.3133351857239797E+00  2.4980915820240870E-09  2.4279686160362993E-09
  4.3563076544255166E+00  2.4520593396993391E-09  2.3833906283268131E-09
  4.3997082449832972E+00  2.4069084281754039E-09  2.3396581352954849E-09
  4.4435412226473554E+00  2.3626213626650611E-09  2.2967546102689077E-09
  4.4878108951611448E+00  2.3191810162614520E-09  2.2546638576543949E-09
  4.5325216131848745E+00  2.2765706130511861E-09  2.2133700068053971E-09
  4.5776777707230760E+00  2.2347737206829151E-09  2.1728575053424141E-09
  4.6232838055564445E+00  2.1937742431022158E-09  2.1331111126178518E-09
  4.6693441996779477E+00  2.1535564134487105E-09  2.0941158933214295E-09
  4.7158634797333168E+00  2.1141047871112777E-09  2.0558572112226897E-09
  4.7628462174658912E+00  2.0754042349376207E-09  2.0183207230474190E-09
  4.8102970301659331E+00  2.0374399365942622E-09  1.9814923724847968E-09
  4.8582205811243817E+00  2.0001973740986401E-09  1.9453583843464133E-09
  4.9066215800911435E+00  1.9636623308427300E-09  1.9099052639711196E-09
  4.9555047837379682E+00  1.9278207757194675E-09  1.8751196839940001E-09
  5.0048749961258929E+00  1.8926589142356907E-09  1.8409885348382699E-09
  5.0547370691773796E+00  1.8581632429551471E-09  1.8074989788084505E-09
  5.1050959031531518E+00  1.8243205408486078E-09  1.7746384420739087E-09
  5.1559564471337529E+00  1.7911178630607330E-09  1.7423946089722468E-09
  5.2073236995059471E+00  1.7585425348251977E-09  1.7107554164449141E-09
  5.2592027084539215E+00  1.7265821455242137E-09  1.6797090486015615E-09
  5.3115985724554218E+00  1.6952245428885482E-09  1.6492439314098352E-09
  5.3645164407827970E+00  1.6644578273344338E-09  1.6193487275073619E-09
  5.4179615140090549E+00  1.6342703464336804E-09  1.5900123311327949E-09
  5.4719390445189662E+00  1.6046506895136315E-09  1.5612238631728997E-09
  5.5264543370252337E+00  1.5755876890754428E-09  1.5329726728382275E-09
  5.5815127490898231E+00  1.5470707027126116E-09  1.5052486127467706E-09
  5.6371196916504998E+00  1.5190897118828766E-09  1.4780421353396905E-09
  5.6932806295525706E+00  1.4916349031964069E-09  1.4513438851537976E-09
  5.7500010820859755E+00  1.4646966285328957E-09  1.4251446602395422E-09
  5.8072866235276761E+00  1.4382654027688297E-09  1.3994354101869450E-09
  5.8651428836895025E+00  1.4123319015211111E-09  1.3742072341605866E-09
  5.9235755484714048E+00  1.3868869589073917E-09  1.3494513789441386E-09
  5.9825903604202582E+00  1.3619215653233644E-09  1.3251592369948825E-09
  6.0421931192942200E+00  1.3374268652373361E-09  1.3013223445086702E-09
  6.1023896826326975E+00  1.3133941550023374E-09  1.2779323794957457E-09
  6.1631859663320130E+00  1.2898148806860211E-09  1.2549811598678214E-09
  6.2245879452267987E+00  1.2666806350005268E-09  1.2324606406580311E-09
  6.2866016536771694E+00  1.2439830244288055E-09  1.2103627849815926E-09
  6.3492331861617792E+00  1.2217133510243217E-09  1.1886792544198823E-09
  6.4124886978767348E+00  1.1998629824107423E-09  1.1674017693500684E-09
  6.4763744053405334E+00  1.1784234734806764E-09  1.1465222275470560E-09
  6.5408965870049816E+00  1.1573865621447630E-09  1.1260327002224321E-09
  6.6060615838722212E+00  1.1367441650743546E-09  1.1059254280511925E-09
  6.6718758001179106E+00  1.1164883735507130E-09  1.0861928172960701E-09
  6.7383457037205901E+00  1.0966114494178190E-09  1.0668274360268992E-09
  6.8054778270973317E+00  1.0771058211360060E-09  1.0478220104324919E-09
  6.8732787677457372E+00  1.0579640799337349E-09  1.0291694212226035E-09
  6.9417551888922944E+00  1.0391789760548664E-09  1.0108627001176267E-09
  7.0109138201472243E+00  1.0207434151933869E-09  9.9289502651414938E-10
  7.0807614581658482E+00  1.0026504776535904E-09  9.7525974611166271E-10
  7.1513049673165323E+00  9.8489360282402295E-10  9.5795055048199396E-10
  7.2225512803552867E+00  9.6746649948717417E-10  9.4096139010016125E-10
  7.2945073991070943E+00  9.5036299539254209E-10  9.2428632809796343E-10
  7.3671803951540404E+00  9.3357703167794725E-10  9.0791953494598862E-10
  7.4405774105302527E+00  9.1710266088980183E-10  8.9185528663236602E-10
  7.5147056584238143E+00  9.0093404503556167E-10  8.7608796286953083E-10
  7.5895724238856506E+00  8.8506545366790870E-10  8.6061204532863627E-10
  7.6651850645454660E+00  8.6949126200013471E-10  8.4542211590120674E-10
  7.7415510113348232E+00  8.5420594905227616E-10  8.3051285498767000E-10
  7.8186777692174454E+00  8.3920409582750962E-10  8.1587903981238111E-10
  7.8965729179267647E+00  8.2448038351856635E-10  8.0151554276497375E-10
  7.9752441127108220E+00  8.1002959179993413E-10  7.8741732986660984E-10
  8.0546990850846072E+00  7.9584658143011014E-10  7.7357944400327160E-10
  8.1349456435898926E+00  7.8192627229839716E-10  7.5999698350938546E-10
  8.2159916745626074E+00  7.6826367717919546E-10  7.4666513509155815E-10
  8.2978451429078817E+00  7.5485390427052602E-10  7.3357917637417490E-10
  8.3805140928828354E+00  7.4169215537841428E-10  7.2073447420544890E-10
  8.4640066488870964E+00  7.2877372413655693E-10  7.0812648299533055E-10
  8.5483310162612582E+00  7.1609399426048054E-10  6.9575074308459051E-10
  8.6334954820932825E+00  7.0364843783547009E-10  6.8360287914444348E-10
  8.7195084160329053E+00  6.9143261363755859E-10  6.7167859860610551E-10
  8.8063782711141716E+00  6.7944216548687666E-10  6.5997369011965400E-10
  8.8941135845861812E+00  6.6767282063267197E-10  6.4848402204160969E-10
  8.9827229787521023E+00  6.5612038766714583E-10  6.3720554045985979E-10
  9.0722151618165228E+00  6.4478073877943546E-10  6.2613425207593651E-10
  9.1625989287412626E+00  6.3364980659930330E-10  6.1526622125112898E-10
  9.2538831621097373E+00  6.2272360218007990E-10  6.0459758742455153E-10
  9.3460768329998682E+00  6.1199821464245921E-10  5.9412456480618132E-10
  9.4391890018657385E+00  6.0146980962212205E-10  5.8384344091332583E-10
  9.5332288194280448E+00  5.9113462774983521E-10  5.7375057513705172E-10
  9.6282055275733711E+00  5.8098898316280157E-10  5.6384239733744833E-10
  9.7241284602624454E+00  5.7102926204656607E-10  5.5411540646708696E-10
  9.8210070444474589E+00  5.6125192120679993E-10  5.4456616922206611E-10
  9.9188508009985217E+00  5.5165348667029941E-10  5.3519131872006009E-10
  1.0017669345639307E+01  5.4223055231457002E-10  5.2598755320477770E-10
  1.0117472389892072E+01  5.3297977854890890E-10  5.1695163480107454E-10
  1.0218269742032081E+01  5.2389789869575028E-10  5.0808039563493998E-10
  1.0320071308051498E+01  5.1498170243697370E-10  4.9937072155324719E-10
  1.0422887092632918E+01  5.0622802606912165E-10  4.9081954297113297E-10
  1.0526727200132616E+01  4.9763376827528749E-10  4.8242385028340134E-10
  1.0631601835573546E+01  4.8919588925743316E-10  4.7418069305139254E-10
  1.0737521305648235E+01  4.8091140947473320E-10  4.6608717880576941E-10
  1.0844496019731718E+01  4.7277740840934526E-10  4.5814047187484162E-10
  1.0952536490904526E+01  4.6479102335896711E-10  4.5033779223784171E-10
  1.1061653336985861E+01  4.5694944825552152E-10  4.4267641440255145E-10
  1.1171857281577076E+01  4.4924993250935509E-10  4.3515366630672082E-10
  1.1283159155115579E+01  4.4168977987833435E-10  4.2776692824271206E-10
  1.1395569895939166E+01  4.3426634736180692E-10  4.2051363180532667E-10
  1.1509100551361025E+01  4.2697703791131959E-10  4.1339125293580037E-10
  1.1623762278755432E+01  4.1981928083890936E-10  4.0639729348417380E-10
  1.1739566346654255E+01  4.1279056189724414E-10  3.9952931002844865E-10
  1.1856524135854340E+01  4.0588841863615197E-10  3.9278490913579630E-10
  1.1974647140536037E+01  3.9911043771096307E-10  3.8616174476501661E-10
  1.2093946969392782E+01  3.9245425386357896E-10  3.7965751729318429E-10
  1.2214435346771936E+01  3.8591754892623358E-10  3.7326997256368999E-10
  1.2336124113827026E+01  3.7949805084737212E-10  3.6699690095514713E-10
  1.2459025229681473E+01  3.7319353273910188E-10  3.6083613647065963E-10
  1.2583150772603844E+01  3.6700181194568051E-10  3.5478555584693764E-10
  1.2708512941194893E+01  3.6092074913251787E-10  3.4884307768278346E-10
  1.2835124055586387E+01  3.5494824739518908E-10  3.4300666158647229E-10
  1.2962996558651900E+01  3.4908225390635992E-10  3.3727430973393651E-10
  1.3092143017229589E+01  3.4332081600028379E-10  3.3164412037259689E-10
  1.3222576123357300E+01  3.3766209736784413E-10  3.2611430358397667E-10
  1.3354308695519856E+01  3.3210430195766767E-10  3.2068310829926349E-10
  1.3487353679908797E+01  3.2664566302484177E-10  3.1534881172088947E-10
  1.3621724151694687E+01  3.2128444273494565E-10  3.1010971895096616E-10
  1.3757433316312145E+01  3.1601893177257247E-10  3.0496416262353020E-10
  1.3894494510757550E+01  3.1084744895397498E-10  2.9991050254027094E-10
  1.4032921204899795E+01  3.0576834084375268E-10  2.9494712530965813E-10
  1.4172727002804058E+01  3.0077998137551330E-10  2.9007244398943468E-10
  1.4313925644068764E+01  2.9588077147644567E-10  2.8528489773241508E-10
  1.4456531005175799E+01  2.9106913869574168E-10  2.8058295143555085E-10
  1.4600557100854342E+01  2.8634353666603212E-10  2.7596509523444651E-10
  1.4746018085458111E+01  2.8170240872607899E-10  2.7142980998283905E-10
  1.4892928254356402E+01  2.7714410884263256E-10  2.6697549147814649E-10
  1.5041302045339014E+01  2.7266698697548697E-10  2.6260053190195446E-10
  1.5191154040035139E+01  2.6826942872772233E-10  2.5830335804599767E-10
  1.5342498965346357E+01  2.6394985500151832E-10  2.5408243098125839E-10
  1.5495351694893976E+01  2.5970672115492301E-10  2.4993624524326083E-10
  1.5649727250480749E+01  2.5553851618216396E-10  2.4586332803997813E-10
  1.5805640803567176E+01  2.5144376191671201E-10  2.4186223848159592E-10
  1.5963107676762428E+01  2.4742101225634446E-10  2.3793156683140726E-10
  1.6122143345330297E+01  2.4346885240947505E-10  2.3406993377713787E-10
  1.6282763438709992E+01  2.3958589816205579E-10  2.3027598972203079E-10
  1.6444983742052145E+01  2.3577079516632641E-10  2.2654841409661194E-10
  1.6608820197770108E+01  2.3202222438020244E-10  2.2288592041363372E-10
  1.6774288907106765E+01  2.2833893140245081E-10  2.1928728390801742E-10
  1.6941406131716850E+01  2.2471971252899442E-10  2.1575132871121221E-10
  1.7110188295265079E+01  2.2116338935633783E-10  2.1227690353785177E-10
  1.7280651985040272E+01  2.1766880615621769E-10  2.0886287914407962E-10
  1.7452813953585434E+01  2.1423482942155224E-10  2.0550814788944091E-10
  1.7626691120344109E+01  2.1086034742294503E-10  2.0221162330885513E-10
  1.7802300573323240E+01  2.0754426977542528E-10  1.9897223969435892E-10
  1.7979659570772473E+01  2.0428552701511327E-10  1.9578895168632912E-10
  1.8158785542880214E+01  2.0108307018551774E-10  1.9266073387390180E-10
  1.8339696093486619E+01  1.9793587043317471E-10  1.8958658040430968E-10
  1.8522409001813681E+01  1.9484291861235758E-10  1.8656550460088069E-10
  1.8706942224212426E+01  1.9180322557151947E-10  1.8359653925112771E-10
  1.8893313895927633E+01  1.8881587677187697E-10  1.8067878894628274E-10
  1.9081542332880133E+01  1.8588004983188826E-10  1.7781144654138979E-10
  1.9271646033466801E+01  1.8299493561587199E-10  1.7499371764879475E-10
  1.9463643680378450E+01  1.8015973496852336E-10  1.7222481757219636E-10
  1.9657554142436020E+01  1.7737365869682657E-10  1.6950397129398630E-10
  1.9853396476444857E+01  1.7463592755163247E-10  1.6683041346193669E-10
  2.0051189929067540E+01  1.7194577220865902E-10  1.6420338837500267E-10
  2.0250953938715398E+01  1.6930243324870488E-10  1.6162214996804577E-10
  2.0452708137458863E+01  1.6670516113688511E-10  1.5908596179529746E-10
  2.0656472352956790E+01  1.6415321620072379E-10  1.5659409701240707E-10
  2.0862266610405062E+01  1.6164586860695067E-10  1.5414583835693611E-10
  2.1070111134504643E+01  1.5918239828008756E-10  1.5174047807400556E-10
  2.1280026351449106E+01  1.5676204538871362E-10  1.4937727093015821E-10
  2.1492032890932084E+01  1.5438390518459312E-10  1.4705533458546444E-10
  2.1706151588174702E+01  1.5204706882499323E-10  1.4477378353992061E-10
  2.1922403485973160E+01  1.4975065017764645E-10  1.4253175445068927E-10
  2.2140809836766728E+01  1.4749378494013539E-10  1.4032840527667304E-10
  2.2361392104726370E+01  1.4527563003349436E-10  1.3816291468741450E-10
  2.2584171967864201E+01  1.4309536301890547E-10  1.3603448149441566E-10
  2.2809171320163852E+01  1.4095218153641311E-10  1.3394232410382226E-10
  2.3036412273732171E+01  1.3884530276462687E-10  1.3188567998946915E-10
  2.3265917160972343E+01  1.3677396290043729E-10  1.2986380518533434E-10
  2.3497708536778603E+01  1.3473741665781745E-10  1.2787597379649973E-10
  2.3731809180752798E+01  1.3273493678554259E-10  1.2592147752836806E-10
  2.3968242099443199E+01  1.3076582542775434E-10  1.2399963634192667E-10
  2.4207030528605440E+01  1.2882947772861862E-10  1.2210985794458039E-10
  2.4448197935485979E+01  1.2692531704892122E-10  1.2025157644167836E-10
  2.4691768021128485E+01  1.2505277562140951E-10  1.1842423462784478E-10
  2.4937764722703054E+01  1.2321129650745719E-10  1.1662728587224745E-10
  2.5186212215858575E+01  1.2140033336972894E-10  1.1486019389799930E-10
  2.5437134917098764E+01  1.1961935025200628E-10  1.1312243256840980E-10
  2.5690557486181678E+01  1.1786782136584878E-10  1.1141348567977922E-10
  2.5946504828543045E+01  1.1614523088378507E-10  1.0973284676043511E-10
  2.6205002097744206E+01  1.1445107273873101E-10  1.0808001887572527E-10
  2.6466074697943746E+01  1.1278485042936811E-10  1.0645451443870333E-10
  2.6729748286394276E+01  1.1114607683120576E-10  1.0485585502624704E-10
  2.6996048775964120E+01  1.0953427307992617E-10  1.0328357035250470E-10
  2.7265002337683562E+01  1.0794901129126635E-10  1.0173723960531740E-10
  2.7536635403317145E+01  1.0639000886877934E-10  1.0021658128495296E-10
  2.7810974667961183E+01  1.0485700498392116E-10  9.8721334647670197E-11
  2.8088047092667164E+01  1.0334973500716679E-10  9.7251235263002873E-11
  2.8367879907091559E+01  1.0186793086813120E-10  9.5806015366951702E-11
  2.8650500612171761E+01  1.0041132140640629E-10  9.4385404205876859E-11
  2.8935936982828689E+01  9.8979632713000424E-11  9.2989128370979319E-11
  2.9224217070696589E+01  9.7572588462293925E-11  9.1616912123288430E-11
  2.9515369206879750E+01  9.6189910234452434E-11  9.0268477709104220E-11
  2.9809422004736692E+01  9.4831317828265914E-11  8.8943545665859639E-11
  3.0106404362692352E+01  9.3496529564399530E-11  8.7641835118395860E-11
  3.0406345467078047E+01  9.2185262647075371E-11  8.6363064122840144E-11
  3.0709274794999679E+01  9.0897192433347527E-11  8.5106910858184897E-11
  3.1015222117234849E+01  8.9631743893184232E-11  8.3872815767936005E-11
  3.1324217501158508E+01  8.8388262565886777E-11  8.2660144349556944E-11
  3.1636291313697736E+01  8.7166115572068180E-11  8.1468283175275593E-11
  3.1951474224316470E+01  8.5964691170549604E-11  8.0296639451743277E-11
  3.2269797208029139E+01  8.4783398019632447E-11  7.9144640298736938E-11
  3.2591291548444993E+01  8.3621664471432845E-11  7.8011732059958706E-11
  3.2915988840842694E+01  8.2478937897644907E-11  7.6897379644340216E-11
  3.3243920995275026E+01  8.1354684045179634E-11  7.5801065896335833E-11
  3.3575120239705178E+01  8.0248386420197844E-11  7.4722290993760033E-11
  3.3909619123173940E+01  7.9159545699135642E-11  7.3660571871803666E-11
