 #p(MeV) \t \delta f_\\nu \t \delta f_\\nubar
  1.2838368343951146E-02  2.6826319732179343E-01  1.6400121343791113E-05
  1.2966273168891538E-02  2.6776660624528797E-01  1.6263493670531402E-05
  1.3095452271357286E-02  2.6734029744664961E-01  1.6127834142117574E-05
  1.3225918346594361E-02  2.6702707000602721E-01  1.5993140549753050E-05
  1.3357684216327645E-02  2.6668536460062936E-01  1.5859411164246600E-05
  1.3490762830021059E-02  2.6614846057540925E-01  1.5726644618281119E-05
  1.3625167266150139E-02  2.6561117985803478E-01  1.5594839763954064E-05
  1.3760910733487366E-02  2.6506208119851321E-01  1.5463995681709405E-05
  1.3898006572400284E-02  2.6461053815538066E-01  1.5334111766618427E-05
  1.4036468256162516E-02  2.6416860152082372E-01  1.5205187399166950E-05
  1.4176309392277894E-02  2.6372883436778866E-01  1.5077221271913500E-05
  1.4317543723817730E-02  2.6324612038022965E-01  1.4950210797872633E-05
  1.4460185130771444E-02  2.6279302054815856E-01  1.4824151843405211E-05
  1.4604247631410662E-02  2.6230146206171773E-01  1.4699038771349813E-05
  1.4749745383666827E-02  2.6183307366577391E-01  1.4574864661340052E-05
  1.4896692686522656E-02  2.6142444209312371E-01  1.4451621586940049E-05
  1.5045103981417325E-02  2.6097616400310331E-01  1.4329300876937422E-05
  1.5194993853665751E-02  2.6057085714388029E-01  1.4207893319107629E-05
  1.5346377033892009E-02  2.6012462815944282E-01  1.4087389395612105E-05
  1.5499268399476946E-02  2.5968758990850849E-01  1.3967779441643876E-05
  1.5653682976020333E-02  2.5925023734015873E-01  1.3849053444293022E-05
  1.5809635938817478E-02  2.5876795168645428E-01  1.3731200944175224E-05
  1.5967142614350619E-02  2.5825042033667728E-01  1.3614211395150617E-05
  1.6126218481795181E-02  2.5773203506018283E-01  1.3498074745368957E-05
  1.6286879174540938E-02  2.5725221346912736E-01  1.3382781898704867E-05
  1.6449140481728502E-02  2.5683937570241105E-01  1.3268324909372023E-05
  1.6613018349800942E-02  2.5642316832485351E-01  1.3154696950303686E-05
  1.6778528884070967E-02  2.5601888008953594E-01  1.3041892159441978E-05
  1.6945688350303720E-02  2.5551522337832849E-01  1.2929905447407143E-05
  1.7114513176315287E-02  2.5498545386218002E-01  1.2818732322591518E-05
  1.7285019953587184E-02  2.5451117289563818E-01  1.2708368703841393E-05
  1.7457225438896880E-02  2.5400742006045751E-01  1.2598810699496397E-05
  1.7631146555964608E-02  2.5355836488330918E-01  1.2490054684334151E-05
  1.7806800397116594E-02  2.5312745024150640E-01  1.2382097585086485E-05
  1.7984204224964752E-02  2.5268954647103414E-01  1.2274936940604987E-05
  1.8163375474103290E-02  2.5222537920155386E-01  1.2168570659960866E-05
  1.8344331752822022E-02  2.5184628995751057E-01  1.2062996670885624E-05
  1.8527090844836898E-02  2.5141826112351423E-01  1.1958212644132545E-05
  1.8711670711037739E-02  2.5098448498226000E-01  1.1854215859899315E-05
  1.8898089491253309E-02  2.5051785564049195E-01  1.1751003187562247E-05
  1.9086365506034059E-02  2.5002462816070020E-01  1.1648571129629754E-05
  1.9276517258452648E-02  2.4957735891152580E-01  1.1546915887602140E-05
  1.9468563435922258E-02  2.4913079885902006E-01  1.1446033430248636E-05
  1.9662522912033239E-02  2.4862148878233287E-01  1.1345919574989795E-05
  1.9858414748407823E-02  2.4819077513749752E-01  1.1246570031679613E-05
  2.0056258196573536E-02  2.4774347335213526E-01  1.1147980460155601E-05
  2.0256072699855073E-02  2.4727625357954544E-01  1.1050146683514596E-05
  2.0457877895285175E-02  2.4684965493601985E-01  1.0953065006028113E-05
  2.0661693615534486E-02  2.4640455333347153E-01  1.0856732469964677E-05
  2.0867539890860595E-02  2.4594120345305934E-01  1.0761146952151501E-05
  2.1075436951076550E-02  2.4546031872770377E-01  1.0666307107375997E-05
  2.1285405227539016E-02  2.4501728757238520E-01  1.0572212223990133E-05
  2.1497465355156110E-02  2.4459914718029652E-01  1.0478862054543848E-05
  2.1711638174415415E-02  2.4419942102470782E-01  1.0386256660429767E-05
  2.1927944733432004E-02  2.4374484782958425E-01  1.0294396286089635E-05
  2.2146406290017084E-02  2.4332378896754689E-01  1.0203281274678169E-05
  2.2367044313767043E-02  2.4284402987067574E-01  1.0112911977338545E-05
  2.2589880488173439E-02  2.4234057922029500E-01  1.0023288475647316E-05
  2.2814936712753996E-02  2.4185860413494611E-01  9.9344100740254161E-06
  2.3042235105204763E-02  2.4138704794412069E-01  9.8462747642457221E-06
  2.3271798003573776E-02  2.4105554536606844E-01  9.7588789022305460E-06
  2.3503647968456401E-02  2.4061966403455906E-01  9.6722171857865161E-06
  2.3737807785212416E-02  2.4016536706492184E-01  9.5862828667204840E-06
  2.3974300466205391E-02  2.3963761171827094E-01  9.5010680724495185E-06
  2.4213149253064115E-02  2.3919931351299578E-01  9.4165641347791258E-06
  2.4454377618966846E-02  2.3866441913517183E-01  9.3327618711467079E-06
  2.4698009270948069E-02  2.3825854635190788E-01  9.2496518040102481E-06
  2.4944068152228337E-02  2.3781425237679454E-01  9.1672243264671874E-06
  2.5192578444567407E-02  2.3734033042067437E-01  9.0854698620894050E-06
  2.5443564570640637E-02  2.3692425583543494E-01  9.0043791850689120E-06
  2.5697051196439190E-02  2.3651539159895779E-01  8.9239439011180782E-06
  2.5953063233694177E-02  2.3614368732080876E-01  8.8441568652637344E-06
  2.6211625842324768E-02  2.3568734235315070E-01  8.7650123563663014E-06
  2.6472764432910946E-02  2.3524421619165262E-01  8.6865059885198901E-06
  2.6736504669190649E-02  2.3477699121546450E-01  8.6086344567178296E-06
  2.7002872470582015E-02  2.3432878770615537E-01  8.5313952329479474E-06
  2.7271894014730562E-02  2.3389329999215849E-01  8.4547862915491834E-06
  2.7543595740081844E-02  2.3342530888115337E-01  8.3788058964356463E-06
  2.7818004348479811E-02  2.3301986211921946E-01  8.3034524504763411E-06
  2.8095146807790829E-02  2.3257715013750813E-01  8.2287243870669928E-06
  2.8375050354554076E-02  2.3213750228187743E-01  8.1546200602426429E-06
  2.8657742496658256E-02  2.3166198667491719E-01  8.0811375035693770E-06
  2.8943251016044887E-02  2.3121330921076089E-01  8.0082740711596341E-06
  2.9231603971438733E-02  2.3075313276003562E-01  7.9360262126484238E-06
  2.9522829701105160E-02  2.3031799352158772E-01  7.8643895293300592E-06
  2.9816956825635278E-02  2.2989341990701617E-01  7.7933590507330114E-06
  3.0114014250758540E-02  2.2948797142436914E-01  7.7229295752913010E-06
  3.0414031170183528E-02  2.2910356465623744E-01  7.6530959486346942E-06
  3.0717037068467071E-02  2.2866983645217726E-01  7.5838532339934921E-06
  3.1023061723911775E-02  2.2822645312079379E-01  7.5151967855828113E-06
  3.1332135211492557E-02  2.2776101063989765E-01  7.4471222562783779E-06
  3.1644287905812377E-02  2.2725886195300612E-01  7.3796255752956202E-06
  3.1959550484087211E-02  2.2679256697991751E-01  7.3127029331482026E-06
  3.2277953929161038E-02  2.2630359233402791E-01  7.2463508603414540E-06
  3.2599529532550575E-02  2.2588526484183741E-01  7.1805664078197629E-06
  3.2924308897520627E-02  2.2547254926556462E-01  7.1153472042830979E-06
  3.3252323942189820E-02  2.2503239891340973E-01  7.0506912392466672E-06
  3.3583606902667477E-02  2.2468491630963097E-01  6.9865964520067699E-06
  3.3918190336221669E-02  2.2425016642644119E-01  6.9230603115025755E-06
  3.4256107124478748E-02  2.2382674302938371E-01  6.8600795375722381E-06
  3.4597390476654881E-02  2.2339947104659991E-01  6.7976500043627432E-06
  3.4942073932819763E-02  2.2295979689069909E-01  6.7357667835615679E-06
  3.5290191367192719E-02  2.2249773698326505E-01  6.6744242662858005E-06
  3.5641776991471870E-02  2.2203846853942893E-01  6.6136163104211505E-06
  3.5996865358196163E-02  2.2163790091430310E-01  6.5533363755451588E-06
  3.6355491364141242E-02  2.2120435181127740E-01  6.4935775916027449E-06
  3.6717690253748839E-02  2.2074998718170105E-01  6.4343327385291511E-06
  3.7083497622590514E-02  2.2028744778592510E-01  6.3755943018575302E-06
  3.7452949420865925E-02  2.1984630924471321E-01  6.3173547626833200E-06
  3.7826081956935764E-02  2.1944462352411498E-01  6.2596070702417184E-06
  3.8202931900890059E-02  2.1901711207545702E-01  6.2023451185457275E-06
  3.8583536288152032E-02  2.1863846382120813E-01  6.1455640595568770E-06
  3.8967932523117706E-02  2.1823920318754478E-01  6.0892603880463159E-06
  3.9356158382831914E-02  2.1781724248683776E-01  6.0334318452674141E-06
  3.9748252020700932E-02  2.1732573732893593E-01  5.9780772213734634E-06
  4.0144251970241997E-02  2.1680340272093279E-01  5.9231961255624067E-06
  4.0544197148870247E-02  2.1631252986012650E-01  5.8687887697257461E-06
  4.0948126861723361E-02  2.1586764877188597E-01  5.8148558052427017E-06
  4.1356080805524435E-02  2.1547810810570284E-01  5.7613982603342795E-06
  4.1768099072483064E-02  2.1512348342294818E-01  5.7084175054385815E-06
  4.2184222154235562E-02  2.1475494834626346E-01  5.6559150961487356E-06
  4.2604490945824344E-02  2.1434869149887545E-01  5.6038924560257866E-06
  4.3028946749716877E-02  2.1393348493014991E-01  5.5523504893246549E-06
  4.3457631279864725E-02  2.1345170168287408E-01  5.5012892564515306E-06
  4.3890586665803137E-02  2.1299094160157725E-01  5.4507078103086363E-06
  4.4327855456791333E-02  2.1258286576576535E-01  5.4006041934250783E-06
  4.4769480625994021E-02  2.1216266338440098E-01  5.3509755450159147E-06
  4.5215505574704710E-02  2.1173130131926404E-01  5.3018182612854635E-06
  4.5665974136611082E-02  2.1130977798779238E-01  5.2531281646342691E-06
  4.6120930582102669E-02  2.1086379738099689E-01  5.2049006499991398E-06
  4.6580419622621660E-02  2.1044190515826483E-01  5.1571307515347357E-06
  4.7044486415057048E-02  2.1005212513903571E-01  5.1098131098205884E-06
  4.7513176566182334E-02  2.0962679853787239E-01  5.0629419357159593E-06
  4.7986536137137659E-02  2.0920528958018150E-01  5.0165110691503826E-06
  4.8464611647956589E-02  2.0875413553528868E-01  4.9705141515655439E-06
  4.8947450082137883E-02  2.0829816196687315E-01  4.9249448588519287E-06
  4.9435098891262762E-02  2.0790076619046641E-01  4.8797971082304857E-06
  4.9927605999658412E-02  2.0746860798256939E-01  4.8350651892920869E-06
  5.0425019809107803E-02  2.0704005892196675E-01  4.7907438160182411E-06
  5.0927389203606323E-02  2.0662067258218761E-01  4.7468281177830738E-06
  5.1434763554165999E-02  2.0619022820475927E-01  4.7033135956865903E-06
  5.1947192723667560E-02  2.0580365648587345E-01  4.6601960664628957E-06
  5.2464727071760642E-02  2.0542263426209398E-01  4.6174716287439798E-06
  5.2987417459812974E-02  2.0500029156280875E-01  4.5751366980555022E-06
  5.3515315255908975E-02  2.0455395161001338E-01  4.5331880766633831E-06
  5.4048472339897916E-02  2.0410003387826053E-01  4.4916229769409315E-06
  5.4586941108492437E-02  2.0364333241784566E-01  4.4504389519173826E-06
  5.5130774480417956E-02  2.0321728017656968E-01  4.4096337468463057E-06
  5.5680025901613431E-02  2.0277631139765648E-01  4.3692051287293475E-06
  5.6234749350483615E-02  2.0236235498859445E-01  4.3291507485843736E-06
  5.6794999343203985E-02  2.0196990099573853E-01  4.2894680586148182E-06
  5.7360830939078455E-02  2.0156273185907456E-01  4.2501542837076171E-06
  5.7932299745950239E-02  2.0118506707942047E-01  4.2112064317037960E-06
  5.8509461925666854E-02  2.0077928793132260E-01  4.1726213241363142E-06
  5.9092374199599583E-02  2.0039686979815494E-01  4.1343956329928607E-06
  5.9681093854217777E-02  1.9999636255740347E-01  4.0965258990501805E-06
  6.0275678746718644E-02  1.9955897854793825E-01  4.0590085395007076E-06
  6.0876187310713412E-02  1.9912600337247735E-01  4.0218398883057552E-06
  6.1482678561969949E-02  1.9866110492160582E-01  3.9850162956804702E-06
  6.2095212104212510E-02  1.9822597710866438E-01  3.9485342726489706E-06
  6.2713848134979419E-02  1.9778394643415462E-01  3.9123906352144340E-06
  6.3338647451539151E-02  1.9738382094626500E-01  3.8765826016225457E-06
  6.3969671456865135E-02  1.9698975555488649E-01  3.8411078269352410E-06
  6.4606982165670221E-02  1.9655817456167646E-01  3.8059643815668873E-06
  6.5250642210501392E-02  1.9615586841965804E-01  3.7711506931941808E-06
  6.5900714847894976E-02  1.9570161743795836E-01  3.7366654743542847E-06
  6.6557263964593119E-02  1.9528836652903075E-01  3.7025076481402978E-06
  6.7220354083822570E-02  1.9484503749697030E-01  3.6686762830597262E-06
  6.7890050371635757E-02  1.9442752673042790E-01  3.6351705493634035E-06
  6.8566418643314905E-02  1.9406215518958070E-01  3.6019896981598001E-06
  6.9249525369840192E-02  1.9371377062702888E-01  3.5691330545394690E-06
  6.9939437684422429E-02  1.9331856282519419E-01  3.5366000100274544E-06
  7.0636223389100417E-02  1.9293826803274891E-01  3.5043900059087439E-06
  7.1339950961404386E-02  1.9250861891157786E-01  3.4725025134859186E-06
  7.2050689561085804E-02  1.9207904489419400E-01  3.4409370141617111E-06
  7.2768509036914092E-02  1.9163473756643509E-01  3.4096929813284743E-06
  7.3493479933540898E-02  1.9120327473578416E-01  3.3787698671132151E-06
  7.4225673498433287E-02  1.9077668790318789E-01  3.3481670937391582E-06
  7.4965161688875570E-02  1.9035834360667486E-01  3.3178840481332931E-06
  7.5712017179040830E-02  1.8994850452899900E-01  3.2879200776503568E-06
  7.6466313367133235E-02  1.8953253873796563E-01  3.2582745226151402E-06
  7.7228124382601446E-02  1.8912657701796121E-01  3.2289469009647934E-06
  7.7997525093423503E-02  1.8874376640694895E-01  3.1999373315254612E-06
  7.8774591113464756E-02  1.8834707603891360E-01  3.1712471534066589E-06
  7.9559398809908935E-02  1.8793245264574876E-01  3.1428795821469914E-06
  8.0352025310763242E-02  1.8754348453169903E-01  3.1148402073466924E-06
  8.1152548512437916E-02  1.8713568047227405E-01  3.0871372006040919E-06
  8.1961047087402081E-02  1.8672459399834071E-01  3.0597812149792749E-06
  8.2777600491915099E-02  1.8629829705272000E-01  3.0327850502848447E-06
  8.3602288973835190E-02  1.8589578484291311E-01  3.0061631968497371E-06
  8.4435193580506024E-02  1.8547610675383161E-01  2.9799313594085638E-06
  8.5276396166721835E-02  1.8506598266263227E-01  2.9541060284413496E-06
  8.6125979402771516E-02  1.8460689636805125E-01  2.9287041224501492E-06
  8.6984026782563437E-02  1.8422804127050280E-01  2.9037426392339031E-06
  8.7850622631830785E-02  1.8384158878004592E-01  2.8792382456463459E-06
  8.8725852116418952E-02  1.8343876219907615E-01  2.8552067885870026E-06
  8.9609801250654847E-02  1.8304460254517360E-01  2.8316627739469810E-06
  9.0502556905800696E-02  1.8266777447022095E-01  2.8086189146928639E-06
  9.1404206818591058E-02  1.8227118765872399E-01  2.7860858788351513E-06
  9.2314839599855328E-02  1.8186909462027198E-01  2.7640722633267250E-06
  9.3234544743226025E-02  1.8140381018517737E-01  2.7425847627141053E-06
  9.4163412633934102E-02  1.8100796121797749E-01  2.7216284650367000E-06
  9.5101534557691478E-02  1.8059736793349807E-01  2.7012071975102991E-06
  9.6049002709662254E-02  1.8016090318029307E-01  2.6813238572809156E-06
  9.7005910203523518E-02  1.7979502640060477E-01  2.6619807053391777E-06
  9.7972351080616082E-02  1.7937427097704281E-01  2.6431797770419851E-06
  9.8948420319186298E-02  1.7903282695107220E-01  2.6249236969259117E-06
  9.9934213843720601E-02  1.7865350737823643E-01  2.6072170418427263E-06
  1.0092982853437239E-01  1.7823808860966403E-01  2.5900681286817810E-06
  1.0193536223648299E-01  1.7787023146094050E-01  2.5734908750936162E-06
  1.0295091377019755E-01  1.7745436825268029E-01  2.5575062649375439E-06
  1.0397658294017698E-01  1.7706216385325296E-01  2.5421430945644467E-06
  1.0501247054540599E-01  1.7667669442323378E-01  2.5274379317134129E-06
  1.0605867838909945E-01  1.7627606906370180E-01  2.5134344386018941E-06
  1.0711530928870733E-01  1.7587904295611032E-01  2.5001823318670883E-06
  1.0818246708601914E-01  1.7546817806846082E-01  2.4877362511376981E-06
  1.0926025665736881E-01  1.7510956976687192E-01  2.4761547408298024E-06
  1.1034878392394211E-01  1.7474711156995298E-01  2.4654993790344415E-06
  1.1144815586218589E-01  1.7437311825567409E-01  2.4558338526957010E-06
  1.1255848051432119E-01  1.7400155094951558E-01  2.4472228191875377E-06
  1.1367986699896143E-01  1.7364877905066700E-01  2.4397305031695458E-06
  1.1481242552183632E-01  1.7328167616541193E-01  2.4334191216598227E-06
  1.1595626738662214E-01  1.7294445106013212E-01  2.4283474938919459E-06
  1.1711150500588037E-01  1.7259420950342397E-01  2.4245702083439686E-06
  1.1827825191210545E-01  1.7224776804769384E-01  2.4221374647661816E-06
  1.1945662276888191E-01  1.7188006813445206E-01  2.4210955776760068E-06
  1.2064673338215329E-01  1.7152528272504242E-01  2.4214879730856316E-06
  1.2184870071160324E-01  1.7114172766118618E-01  2.4233564481642998E-06
  1.2306264288214976E-01  1.7076814672055313E-01  2.4267424912355811E-06
  1.2428867919555397E-01  1.7039032115862079E-01  2.4316884779785233E-06
  1.2552693014214478E-01  1.7002051950528077E-01  2.4382385813889197E-06
  1.2677751741266038E-01  1.6964161594386135E-01  2.4464391925235916E-06
  1.2804056391020724E-01  1.6933801017726829E-01  2.4563387743496428E-06
  1.2931619376233866E-01  1.6902041364333426E-01  2.4679872571986421E-06
  1.3060453233325386E-01  1.6872750199231057E-01  2.4814351943717311E-06
  1.3190570623611811E-01  1.6841889687524284E-01  2.4967328661303297E-06
  1.3321984334550535E-01  1.6812586273866562E-01  2.5139296595730355E-06
  1.3454707280996611E-01  1.6777372720529993E-01  2.5330739002772268E-06
  1.3588752506471932E-01  1.6746930046269395E-01  2.5542131399911174E-06
  1.3724133184447063E-01  1.6710983041609956E-01  2.5773947878364085E-06
  1.3860862619635941E-01  1.6680699578651528E-01  2.6026669248173397E-06
  1.3998954249303408E-01  1.6647341450282013E-01  2.6300791350574003E-06
  1.4138421644585711E-01  1.6613292896390111E-01  2.6596831392036065E-06
  1.4279278511824303E-01  1.6581924294842176E-01  2.6915328692984678E-06
  1.4421538693912833E-01  1.6550367424805612E-01  2.7256836275857601E-06
  1.4565216171657486E-01  1.6520186227214367E-01  2.7621901714635803E-06
  1.4710325065151156E-01  1.6487315308246031E-01  2.8011038426254308E-06
  1.4856879635160905E-01  1.6456308022203278E-01  2.8424690018168748E-06
  1.5004894284529549E-01  1.6426661668604109E-01  2.8863193740325620E-06
  1.5154383559591217E-01  1.6394977976365760E-01  2.9326749359908881E-06
  1.5305362151600710E-01  1.6362067396085059E-01  2.9815397369861682E-06
  1.5457844898177459E-01  1.6332005133213379E-01  3.0329007381637159E-06
  1.5611846784763675E-01  1.6300688483546069E-01  3.0867274821049812E-06
  1.5767382946096989E-01  1.6266125506797774E-01  3.1429722256544695E-06
  1.5924468667697955E-01  1.6234129991007643E-01  3.2015702292400308E-06
  1.6083119387372191E-01  1.6200680004552778E-01  3.2624401493400263E-06
  1.6243350696727510E-01  1.6170523771429493E-01  3.3254844699551131E-06
  1.6405178342706297E-01  1.6138560006271657E-01  3.3905901654409162E-06
  1.6568618229133023E-01  1.6107569126437074E-01  3.4576299568688699E-06
  1.6733686418277155E-01  1.6076772690217828E-01  3.5264639778135460E-06
  1.6900399132431790E-01  1.6045497383257340E-01  3.5969415092275308E-06
  1.7068772755507891E-01  1.6009486116005225E-01  3.6689025957803451E-06
  1.7238823834644365E-01  1.5980079467690383E-01  3.7421791336989283E-06
  1.7410569081834379E-01  1.5943339360138953E-01  3.8165951516484815E-06
  1.7584025375567683E-01  1.5908086116955097E-01  3.8919662389839049E-06
  1.7759209762489303E-01  1.5874113685341540E-01  3.9680982976025431E-06
  1.7936139459075023E-01  1.5838976700344717E-01  4.0447859831015341E-06
  1.8114831853323118E-01  1.5804650810931262E-01  4.1218112113597791E-06
  1.8295304506463284E-01  1.5770700914161939E-01  4.1989423362089368E-06
  1.8477575154682610E-01  1.5737754079226601E-01  4.2759345179809046E-06
  1.8661661710868391E-01  1.5703859220515293E-01  4.3525315919499968E-06
  1.8847582266368726E-01  1.5665367051920379E-01  4.4284696255225425E-06
  1.9035355092770412E-01  1.5634344449032583E-01  4.5034821688786966E-06
