 #p(MeV) \t \delta f_\\nu \t \delta f_\\nubar
  1.7194536952617643E+00  6.0232457896041833E-08  5.4825607885105379E-08
  1.7365840982844494E+00  5.9049646460800266E-08  5.3793204546168468E-08
  1.7538851663901935E+00  5.7890461355072323E-08  5.2780152481081914E-08
  1.7713585998641896E+00  5.6754398269666426E-08  5.1786072315106634E-08
  1.7890061159310597E+00  5.5640973650910823E-08  5.0810600998326699E-08
  1.8068294489236254E+00  5.4549745227777096E-08  4.9853410516957451E-08
  1.8248303504533439E+00  5.3480287786531947E-08  4.8914185854614097E-08
  1.8430105895824547E+00  5.2432183510908514E-08  4.7992616383211948E-08
  1.8613719529978374E+00  5.1405021846337625E-08  4.7088395808521014E-08
  1.8799162451865956E+00  5.0398399399774475E-08  4.6201222145322712E-08
  1.8986452886134013E+00  4.9411919840084574E-08  4.5330797691384855E-08
  1.9175609238995952E+00  4.8445193799015682E-08  4.4476829000314511E-08
  1.9366650100040774E+00  4.7497838772777633E-08  4.3639026853342866E-08
  1.9559594244060028E+00  4.6569479024254202E-08  4.2817106230097578E-08
  1.9754460632892854E+00  4.5659745485868787E-08  4.2010786278415709E-08
  1.9951268417289576E+00  4.4768275655134760E-08  4.1219790275471003E-08
  2.0150036938793678E+00  4.3894710866201955E-08  4.0443843121805125E-08
  2.0350785731642653E+00  4.3038677691866688E-08  3.9682654254168469E-08
  2.0553534524687804E+00  4.2199796989795475E-08  3.8935926140041117E-08
  2.0758303243333036E+00  4.1377698241134793E-08  3.8203367409831799E-08
  2.0965112011493128E+00  4.0572019769342566E-08  3.7484693110203022E-08
  2.1173981153571386E+00  3.9782408508277813E-08  3.6779624550055912E-08
  2.1384931196457058E+00  3.9008519776891477E-08  3.6087889150491880E-08
  2.1597982871542696E+00  3.8250017060316505E-08  3.5409220298641239E-08
  2.1813157116761452E+00  3.7506571797160949E-08  3.4743357205252514E-08
  2.2030475078644915E+00  3.6777863172814408E-08  3.4090044765938116E-08
  2.2249958114401198E+00  3.6063577918584737E-08  3.3449033425976943E-08
  2.2471627794013891E+00  3.5363410118350536E-08  3.2820079050388019E-08
  2.2695505902361917E+00  3.4677061560543650E-08  3.2202943313490380E-08
  2.2921614441360396E+00  3.4004251341491327E-08  3.1597402722416200E-08
  2.3149975632122981E+00  3.3344718282834771E-08  3.1003250809348230E-08
  2.3380611917145608E+00  3.2698207289552750E-08  3.0420285560079300E-08
  2.3613545962512097E+00  3.2064467836276670E-08  2.9848308063955662E-08
  2.3848800660121707E+00  3.1443253896530307E-08  2.9287122482126020E-08
  2.4086399129938800E+00  3.0834323872738158E-08  2.8736536015584922E-08
  2.4326364722265086E+00  3.0237440527001906E-08  2.8196358873032410E-08
  2.4568721020034294E+00  2.9652370912647185E-08  2.7666404238573435E-08
  2.4813491841129891E+00  2.9078886306540415E-08  2.7146488239277117E-08
  2.5060701240725822E+00  2.8516762142175661E-08  2.6636429912617715E-08
  2.5310373513650499E+00  2.7965777943463531E-08  2.6136051173751021E-08
  2.5562533196774448E+00  2.7425717172501161E-08  2.5645176698623334E-08
  2.5817205071421734E+00  2.6896364251470908E-08  2.5163631122846999E-08
  2.6074414165805289E+00  2.6377500676673478E-08  2.4691235450209901E-08
  2.6334185757486717E+00  2.5868911041049059E-08  2.4227812739697868E-08
  2.6596545375860332E+00  2.5370384552848013E-08  2.3773189540971275E-08
  2.6861518804662237E+00  2.4881714934129370E-08  2.3327195826077769E-08
  2.7129132084504151E+00  2.4402700319369260E-08  2.2889664920475836E-08
  2.7399411515432615E+00  2.3933143156469613E-08  2.2460433435480556E-08
  2.7672383659513704E+00  2.3472850110106679E-08  2.2039341202101177E-08
  2.7948075343443390E+00  2.3021631967361542E-08  2.1626231206241847E-08
  2.8226513661183987E+00  2.2579303545574938E-08  2.1220949525235422E-08
  2.8507725976626883E+00  2.2145683602371110E-08  2.0823345265683274E-08
  2.8791739926281701E+00  2.1720594765602627E-08  2.0433270519903908E-08
  2.9078583421992388E+00  2.1303864115552406E-08  2.0050580953985280E-08
  2.9368284653680190E+00  2.0895323537002904E-08  1.9675136189708738E-08
  2.9660872092114166E+00  2.0494808201161290E-08  1.9306798356193432E-08
  2.9956374491709101E+00  2.0102156666528149E-08  1.8945432186902916E-08
  3.0254820893351408E+00  1.9717210826298780E-08  1.8590904988729628E-08
  3.0556240627253204E+00  1.9339815837312709E-08  1.8243086593484270E-08
  3.0860663315834711E+00  1.8969820050582931E-08  1.7901849310285270E-08
  3.1168118876635456E+00  1.8607074943366755E-08  1.7567067878831397E-08
  3.1478637525254509E+00  1.8251435052742441E-08  1.7238619423541912E-08
  3.1792249778319870E+00  1.7902757910655928E-08  1.6916383408547781E-08
  3.2108986456487636E+00  1.7560903980402956E-08  1.6600241593518716E-08
  3.2428878687470806E+00  1.7225736591721305E-08  1.6290077987597086E-08
  3.2751957909098555E+00  1.6897121722667164E-08  1.5985778653265988E-08
  3.3078255872405715E+00  1.6574928927041143E-08  1.5687232574225818E-08
  3.3407804644753156E+00  1.6259032752885037E-08  1.5394333012976286E-08
  3.3740636612979338E+00  1.5949310429052869E-08  1.5106975371505563E-08
  3.4076784486583058E+00  1.5645641519192744E-08  1.4825056880128985E-08
  3.4416281300938065E+00  1.5347907879568224E-08  1.4548476569161589E-08
  3.4759160420539725E+00  1.5055993617582641E-08  1.4277135240927809E-08
  3.5105455542283805E+00  1.4769785050996105E-08  1.4010935442107022E-08
  3.5455200698778251E+00  1.4489170667823978E-08  1.3749781436413050E-08
  3.5808430261687629E+00  1.4214041086907273E-08  1.3493579177606508E-08
  3.6165178945111198E+00  1.3944289019144316E-08  1.3242236282837967E-08
  3.6525481808994353E+00  1.3679809229399345E-08  1.2995662006344762E-08
  3.6889374262574228E+00  1.3420498504146250E-08  1.2753767218363120E-08
  3.7256892067859688E+00  1.3166254650320917E-08  1.2516463464105195E-08
  3.7628071343145697E+00  1.2916974109386446E-08  1.2283660724903373E-08
  3.8002948566563028E+00  1.2672554670460398E-08  1.2055269984633649E-08
  3.8381560579663208E+00  1.2432896374089396E-08  1.1831204087816625E-08
  3.8763944591039046E+00  1.2197901459784885E-08  1.1611377699102764E-08
  3.9150138179981520E+00  1.1967474314096831E-08  1.1395707262967897E-08
  3.9540179300172755E+00  1.1741521420003958E-08  1.1184110964355490E-08
  3.9934106283416160E+00  1.1519951307584486E-08  1.0976508690241534E-08
  4.0331957843403368E+00  1.1302674505932643E-08  1.0772821992099492E-08
  4.0733773079518949E+00  1.1089603496287277E-08  1.0572974049242712E-08
  4.1139591480683002E+00  1.0880652666339523E-08  1.0376889633022318E-08
  4.1549452929231894E+00  1.0675738272395737E-08  1.0184495078390839E-08
  4.1963397704837746E+00  1.0474779042800886E-08  9.9957188731406452E-09
  4.2381466488467110E+00  1.0277698807385783E-08  9.8104941660576380E-09
  4.2803700366378719E+00  1.0084424547177513E-08  9.6287569084897566E-09
  4.3230140834161537E+00  9.8948845528471398E-09  9.4504441155903093E-09
  4.3660829800812575E+00  9.7090083713957293E-09  9.2754938214252589E-09
  4.4095809592855719E+00  9.5267267874468911E-09  9.1038450665282327E-09
  4.4535122958501319E+00  9.3479718047162626E-09  8.9354378854768087E-09
  4.4978813071847332E+00  9.1726766276590635E-09  8.7702132944947692E-09
  4.5426923537122450E+00  9.0007756432974344E-09  8.6081132790855503E-09
  4.5879498392971154E+00  8.8322044032287770E-09  8.4490807817011760E-09
  4.6336582116781777E+00  8.6668996058162098E-09  8.2930596894512529E-09
  4.6798219629057662E+00  8.5047990776440737E-09  8.1399948209775373E-09
  4.7264456297831581E+00  8.3458415478505967E-09  7.9898317125071694E-09
  4.7735337943124554E+00  8.1899648018906681E-09  7.8425148501394704E-09
  4.8210910841448680E+00  8.0371059350861016E-09  7.6979879269167532E-09
  4.8691221730355183E+00  7.8872032788048319E-09  7.5561956858083876E-09
  4.9176317813027497E+00  7.7401965071897893E-09  7.4170840252418662E-09
  4.9666246762920228E+00  7.5960266059570678E-09  7.2805999735590698E-09
  5.0161056728444438E+00  7.4546358419666785E-09  7.1466916640687006E-09
  5.0660796337699345E+00  7.3159677335456261E-09  7.0153083106801567E-09
  5.1165514703251374E+00  7.1799670215433920E-09  6.8864001841044620E-09
  5.1675261426960839E+00  7.0465796411006353E-09  6.7599185886085322E-09
  5.2190086604856480E+00  6.9157526941125911E-09  6.6358158393090999E-09
  5.2710040832058791E+00  6.7874344224632808E-09  6.5140452400836372E-09
  5.3235175207752379E+00  6.6615742107005625E-09  6.3945610898230367E-09
  5.3765541340207728E+00  6.5381232710176568E-09  6.2773193466936762E-09
  5.4301191351853078E+00  6.4170352278273998E-09  6.1622781894425261E-09
  5.4842177884396790E+00  6.2982648193746524E-09  6.0493967739235076E-09
  5.5388554104000942E+00  6.1817676311640526E-09  5.9386349812645003E-09
  5.5940373706506081E+00  6.0675000808636774E-09  5.8299534061295382E-09
  5.6497690922708372E+00  5.9554194034908733E-09  5.7233133451703058E-09
  5.7060560523689245E+00  5.8454836368388838E-09  5.6186767856300870E-09
  5.7629037826197997E+00  5.7376516071410407E-09  5.5160063940990556E-09
  5.8203178698088127E+00  5.6318829149689841E-09  5.4152655054198589E-09
  5.8783039563807904E+00  5.5281379213618964E-09  5.3164181117424926E-09
  5.9368677409945523E+00  5.4263777341835884E-09  5.2194288517275333E-09
  5.9960149790829460E+00  5.3265641947317954E-09  5.1242629999677271E-09
  6.0557514834184731E+00  5.2286597350919496E-09  5.0308863316941686E-09
  6.1160831246845611E+00  5.1326267489363819E-09  4.9392645201717815E-09
  6.1770158320524908E+00  5.0384280546934684E-09  4.8493635843788656E-09
  6.2385555937641026E+00  4.9460272353646749E-09  4.7611502167006148E-09
  6.3007084577203116E+00  4.8553886261478600E-09  4.6745917730458047E-09
  6.3634805320754522E+00  4.7664772982585634E-09  4.5896562592716794E-09
  6.4268779858375673E+00  4.6792590431155130E-09  4.5063123178945523E-09
  6.4909070494746981E+00  4.5937003568817135E-09  4.4245292150799984E-09
  6.5555740155271707E+00  4.5097684253526963E-09  4.3442768279065547E-09
  6.6208852392260011E+00  4.4274311091837353E-09  4.2655256318969266E-09
  6.6868471391174751E+00  4.3466569294479324E-09  4.1882466888108851E-09
  6.7534661976939461E+00  4.2674150530152473E-09  4.1124116342034191E-09
  6.8207489620308861E+00  4.1896752908127329E-09  4.0379926773536217E-09
  6.8887020444303255E+00  4.1134086023958051E-09  3.9649630886986896E-09
  6.9573321230706942E+00  4.0385870886721169E-09  3.8932971938251597E-09
  7.0266459426631034E+00  3.9651833969524342E-09  3.8229698030995930E-09
  7.0966503151142053E+00  3.8931706756206881E-09  3.7539561694627179E-09
  7.1673521201956492E+00  3.8225225656171548E-09  3.6862319814834605E-09
  7.2387583062201921E+00  3.7532131920467079E-09  3.6197733564969892E-09
  7.3108758907245441E+00  3.6852171559108641E-09  3.5545568338265064E-09
  7.3837119611590376E+00  3.6185095259622145E-09  3.4905593680884062E-09
  7.4572736755841653E+00  3.5530658306800283E-09  3.4277583225805104E-09
  7.5315682633740213E+00  3.4888620503656954E-09  3.3661314627530491E-09
  7.6066030259267947E+00  3.4258746093802526E-09  3.3056569497867299E-09
  7.6823853373823328E+00  3.3640803716966409E-09  3.2463133372534197E-09
  7.7589226453468196E+00  3.3034563063870781E-09  3.1880792486931375E-09
  7.8362224716247164E+00  3.2439791370714614E-09  3.1309330411781070E-09
  7.9142924129579786E+00  3.1856259690221839E-09  3.0748534110933426E-09
  7.9931401417726304E+00  3.1283743910516294E-09  3.0198194931402494E-09
  8.0727734069327735E+00  3.0722024647138223E-09  2.9658108508743481E-09
  8.1532000345021274E+00  3.0170887137604220E-09  2.9128074674565856E-09
  8.2344279285131528E+00  2.9630121138457597E-09  2.8607897366141199E-09
  8.3164650717438171E+00  2.9099520824747139E-09  2.8097384538055852E-09
  8.3993195265021132E+00  2.8578884691872387E-09  2.7596348075859611E-09
  8.4829994354184066E+00  2.8068015459737177E-09  2.7104603711662853E-09
  8.5675130222456506E+00  2.7566719979159312E-09  2.6621970941641056E-09
  8.6528685926675806E+00  2.7074809079231012E-09  2.6148272886938796E-09
  8.7390745351149892E+00  2.6592098117504707E-09  2.5683336838648631E-09
  8.8261393215901034E+00  2.6118410234225416E-09  2.5226997405598533E-09
  8.9140715084991466E+00  2.5653573444898521E-09  2.4779093708564881E-09
  9.0028797374932807E+00  2.5197419055897272E-09  2.4339467858151119E-09
  9.0925727363178570E+00  2.4749781593306067E-09  2.3907964892261017E-09
  9.1831593196701302E+00  2.4310498742383583E-09  2.3484432723599844E-09
  9.2746483900655488E+00  2.3879411288135006E-09  2.3068722088063714E-09
  9.3670489387126779E+00  2.3456363056974085E-09  2.2660686494002947E-09
  9.4603700463967879E+00  2.3041200859455237E-09  2.2260182172346091E-09
  9.5546208843722980E+00  2.2633774434056484E-09  2.1867068027571224E-09
  9.6498107152641008E+00  2.2233936391994825E-09  2.1481205589510963E-09
  9.7459488939778591E+00  2.1841542188239298E-09  2.1102458989902658E-09
  9.8430448686193337E+00  2.1456450710678133E-09  2.0730695529834341E-09
  9.9411081814229636E+00  2.1078524693956928E-09  2.0365786086878697E-09
  1.0040148469689617E+01  2.0707629597250720E-09  2.0007604039269992E-09
  1.0140175466733696E+01  2.0343633363302856E-09  1.9656025036583021E-09
  1.0241199002839702E+01  1.9986406378787532E-09  1.9310926965739476E-09
  1.0343229006228341E+01  1.9635821431097710E-09  1.8972189913430481E-09
  1.0446275504032194E+01  1.9291753665847884E-09  1.8639696129098930E-09
  1.0550348623281169E+01  1.8954080545079784E-09  1.8313329988473989E-09
  1.0655458591897750E+01  1.8622681806160642E-09  1.7992977957651640E-09
  1.0761615739702163E+01  1.8297439421363266E-09  1.7678528557714128E-09
  1.0868830499427517E+01  1.7978237558117311E-09  1.7369872329881917E-09
  1.0977113407745145E+01  1.7664962538213326E-09  1.7066901799613456E-09
  1.1086475106300087E+01  1.7357502383196359E-09  1.6769511046732330E-09
  1.1196926342756891E+01  1.7055744665799043E-09  1.6477593635560928E-09
  1.1308477971855886E+01  1.6759577210283266E-09  1.6191043284873594E-09
  1.1421140956479942E+01  1.6468890050202716E-09  1.5909755765494338E-09
  1.1534926368731830E+01  1.6183575500983655E-09  1.5633628973485771E-09
  1.1649845391022387E+01  1.5903528110113215E-09  1.5362562884796859E-09
  1.1765909317169458E+01  1.5628644608491275E-09  1.5096459510942828E-09
  1.1883129553507841E+01  1.5358823862915971E-09  1.4835222855691065E-09
  1.2001517620010191E+01  1.5093966829674024E-09  1.4578758872728559E-09
  1.2121085151419242E+01  1.4833976509207434E-09  1.4326975424285527E-09
  1.2241843898391190E+01  1.4578757901829788E-09  1.4079782240692437E-09
  1.2363805728650490E+01  1.4328217964484715E-09  1.3837090880862546E-09
  1.2486982628156186E+01  1.4082265633043940E-09  1.3598814754034674E-09
  1.2611386702279868E+01  1.3840812707455299E-09  1.3364869971204011E-09
  1.2737030176995304E+01  1.3603774641743354E-09  1.3135176118039725E-09
  1.2863925400079985E+01  1.3371068820934822E-09  1.2909654591451946E-09
  1.2992084842328628E+01  1.3142614179295844E-09  1.2688228232178853E-09
  1.3121521098778754E+01  1.2918331171401315E-09  1.2470821298719520E-09
  1.3252246889948442E+01  1.2698141744164148E-09  1.2257359442132720E-09
  1.3384275063086521E+01  1.2481969309369126E-09  1.2047769681264181E-09
  1.3517618593435120E+01  1.2269738716702580E-09  1.1841980378395546E-09
  1.3652290585504806E+01  1.2061376227268341E-09  1.1639921215307521E-09
  1.3788304274362471E+01  1.1856809487581224E-09  1.1441523169750487E-09
  1.3925673026932037E+01  1.1655967504029221E-09  1.1246718492315682E-09
  1.4064410343308078E+01  1.1458780624525372E-09  1.1055440690317247E-09
  1.4204529858082564E+01  1.1265180867462620E-09  1.0867624842649506E-09
  1.4346045341684849E+01  1.1075101608188868E-09  1.0683207292906230E-09
  1.4488970701734965E+01  1.0888477587608929E-09  1.0502125667321669E-09
  1.4633319984410354E+01  1.0705244775571986E-09  1.0324318745557181E-09
  1.4779107375826374E+01  1.0525340324723678E-09  1.0149726417390213E-09
  1.4926347203430399E+01  1.0348702549380998E-09  9.9782896635191804E-10
  1.5075053937409860E+01  1.0175270904808955E-09  9.8099505367156843E-10
  1.5225242192114340E+01  1.0004985966887861E-09  9.6446521433150010E-10
  1.5376926727491842E+01  9.8377894121618331E-10  9.4823386250365421E-10
  1.5530122450539292E+01  9.6736239982586028E-10  9.3229551411257536E-10
  1.5684844416767566E+01  9.5124335446714087E-10  9.1664478508099284E-10
  1.5841107831681127E+01  9.3541629133260790E-10  9.0127638955282167E-10
  1.5998928052272296E+01  9.1987575578587177E-10  8.8618509728119733E-10
  1.6158320588530522E+01  9.0461625915834188E-10  8.7136564554439610E-10
  1.6319301104966662E+01  8.8963229515170383E-10  8.5681275303891320E-10
  1.6481885422152398E+01  8.7491844984908249E-10  8.4252122566394704E-10
  1.6646089518275037E+01  8.6046942379725132E-10  8.2848597792306423E-10
  1.6811929530707779E+01  8.4628002939518490E-10  8.1470203048227270E-10
  1.6979421757595670E+01  8.3234518835286379E-10  8.0116450779292846E-10
  1.7148582659457283E+01  8.1865992921800614E-10  7.8786863577732459E-10
  1.7319428860802411E+01  8.0521938496847014E-10  7.7480973957488222E-10
  1.7491977151765891E+01  7.9201879066818617E-10  7.6198324134697010E-10
  1.7666244489757652E+01  7.7905348118453422E-10  7.4938465813842675E-10
  1.7842248001129182E+01  7.6631888896591279E-10  7.3700959979458510E-10
  1.8020004982856737E+01  7.5381055297973791E-10  7.2485377734544271E-10
  1.8199532904241181E+01  7.4152414663265724E-10  7.1291302827553400E-10
  1.8380849408624741E+01  7.2945546996023222E-10  7.0118331033608753E-10
  1.8563972315125039E+01  7.1760043747652587E-10  6.8966069062731790E-10
  1.8748919620386239E+01  7.0595504425697960E-10  6.7834131289853434E-10
  1.8935709500347638E+01  6.9451536417156014E-10  6.6722139589067718E-10
  1.9124360312030031E+01  6.8327754826754578E-10  6.5629723182148600E-10
  1.9314890595339733E+01  6.7223782318936024E-10  6.4556518490472010E-10
  1.9507319074890511E+01  6.6139248963440990E-10  6.3502168990249921E-10
  1.9701664661844006E+01  6.5073792084391024E-10  6.2466325070981629E-10
  1.9897946455767990E+01  6.4027056112780029E-10  6.1448643897041437E-10
  2.0096183746513507E+01  6.2998692442275239E-10  6.0448789272311813E-10
  2.0296396016110755E+01  6.1988359195015315E-10  5.9466431423081052E-10
  2.0498602940683416E+01  6.0995728731007798E-10  5.8501254238157331E-10
  2.0702824392382603E+01  6.0020498922271880E-10  5.7552965975085363E-10
  2.0909080441339722E+01  5.9062369407633993E-10  5.6621276475014592E-10
  2.1117391357638834E+01  5.8121044394739242E-10  5.5705899905646985E-10
  2.1327777613308854E+01  5.7196232975533445E-10  5.4806555069619747E-10
  2.1540259884335399E+01  5.6287649056042086E-10  5.3922965340966330E-10
  2.1754859052692677E+01  5.5395011287869370E-10  5.3054858603052890E-10
  2.1971596208395830E+01  5.4518043001311084E-10  5.2201967187891657E-10
  2.2190492651573525E+01  5.3656472139980910E-10  5.1364027816740927E-10
  2.2411569894561158E+01  5.2810031196857436E-10  5.0540781541905766E-10
  2.2634849664015167E+01  5.1978457151664147E-10  4.9731973689660061E-10
  2.2860353903048171E+01  5.1161491416303770E-10  4.8937353809936000E-10
  2.3088104773385385E+01  5.0358873662384846E-10  4.8156669789214818E-10
  2.3318124657542747E+01  4.9570299369864447E-10  4.7389627416208438E-10
  2.3550436161026489E+01  4.8795448962875720E-10  4.6635918225596213E-10
  2.3785062114554663E+01  4.8034011880935068E-10  4.5895242457892996E-10
  2.4022025576301107E+01  4.7285685949537385E-10  4.5167308450766390E-10
  2.4261349834161194E+01  4.6550177129090734E-10  4.4451832396913590E-10
  2.4503058408040648E+01  4.5827199273143557E-10  4.3748538110873247E-10
  2.4747175052167112E+01  4.5116473895505922E-10  4.3057156804387425E-10
  2.4993723757424338E+01  4.4417729945883940E-10  4.2377426869945460E-10
  2.5242728753710171E+01  4.3730703593658227E-10  4.1709093672154192E-10
  2.5494214512317686E+01  4.3055138019461220E-10  4.1051909346600865E-10
