 #p(MeV) \t \delta f_\\nu \t \delta f_\\nubar
  1.1909346230954652E-02  2.6826319739791404E-01  1.6400285493018283E-05
  1.2027995486375218E-02  2.6776660632157401E-01  1.6263657825112711E-05
  1.2147826808849573E-02  2.6734029752307792E-01  1.6127998302054460E-05
  1.2268851974958332E-02  2.6702707008256066E-01  1.5993304714995597E-05
  1.2391082878608631E-02  2.6668536467727727E-01  1.5859575334693547E-05
  1.2514531532203077E-02  2.6614846065223563E-01  1.5726808793779842E-05
  1.2639210067820230E-02  2.6561117993503969E-01  1.5595003944300574E-05
  1.2765130738406924E-02  2.6506208127570041E-01  1.5464159866649124E-05
  1.2892305918982454E-02  2.6461053823271796E-01  1.5334275955876943E-05
  1.3020748107854708E-02  2.6416860159830791E-01  1.5205351592498399E-05
  1.3150469927848506E-02  2.6372883444541895E-01  1.5077385469105716E-05
  1.3281484127546074E-02  2.6324612045801998E-01  1.4950374998747172E-05
  1.3413803582539954E-02  2.6279302062609916E-01  1.4824316047817344E-05
  1.3547441296698383E-02  2.6230146213982125E-01  1.4699202979188527E-05
  1.3682410403443224E-02  2.6183307374403275E-01  1.4575028872528063E-05
  1.3818724167040726E-02  2.6142444217151806E-01  1.4451785801433794E-05
  1.3956395983905030E-02  2.6097616408164631E-01  1.4329465094727072E-05
  1.4095439383914747E-02  2.6057085722255779E-01  1.4208057540217076E-05
  1.4235868031742640E-02  2.6012462823826826E-01  1.4087553620098984E-05
  1.4377695728198504E-02  2.5968758998747904E-01  1.3967943669599545E-05
  1.4520936411585495E-02  2.5925023741927439E-01  1.3849217675837083E-05
  1.4665604159069891E-02  2.5876795176573003E-01  1.3731365179435586E-05
  1.4811713188064577E-02  2.5825042041612467E-01  1.3614375634257991E-05
  1.4959277857626289E-02  2.5773203513980231E-01  1.3498238988456866E-05
  1.5108312669866722E-02  2.5725221354890615E-01  1.3382946145909632E-05
  1.5258832271377802E-02  2.5683937578232735E-01  1.3268489160832768E-05
  1.5410851454671054E-02  2.5642316840490853E-01  1.3154861206162341E-05
  1.5564385159631365E-02  2.5601888016972568E-01  1.3042056419843278E-05
  1.5719448474985253E-02  2.5551522345868577E-01  1.2930069712498613E-05
  1.5876056639783680E-02  2.5498545394271355E-01  1.2818896592523497E-05
  1.6034225044899743E-02  2.5451117297632975E-01  1.2708532978767019E-05
  1.6193969234541177E-02  2.5400742014131700E-01  1.2598974979571613E-05
  1.6355304907778024E-02  2.5355836496431855E-01  1.2490218969717228E-05
  1.6518247920085480E-02  2.5312745032265993E-01  1.2382261875933627E-05
  1.6682814284902068E-02  2.5268954655233405E-01  1.2275101237067496E-05
  1.6849020175203452E-02  2.5222537928300892E-01  1.2168734962185061E-05
  1.7016881925091775E-02  2.5184629003909292E-01  1.2063160979012849E-05
  1.7186416031400975E-02  2.5141826120523991E-01  1.1958376958299170E-05
  1.7357639155318023E-02  2.5098448506413112E-01  1.1854380180236727E-05
  1.7530568124020304E-02  2.5051785572251928E-01  1.1751167514196861E-05
  1.7705219932329323E-02  2.5002462824289262E-01  1.1648735462683003E-05
  1.7881611744380944E-02  2.4957735899386838E-01  1.1547080227190469E-05
  1.8059760895312148E-02  2.4913079894151247E-01  1.1446197776483508E-05
  1.8239684892964746E-02  2.4862148886499588E-01  1.1346083927977696E-05
  1.8421401419605892E-02  2.4819077522030530E-01  1.1246734391521977E-05
  1.8604928333665924E-02  2.4774347343509337E-01  1.1148144826948730E-05
  1.8790283671493359E-02  2.4727625366266046E-01  1.1050311057350732E-05
  1.8977485649127449E-02  2.4684965501927850E-01  1.0953229386995650E-05
  1.9166552664088430E-02  2.4640455341687989E-01  1.0856896858148178E-05
  1.9357503297185517E-02  2.4594120353662355E-01  1.0761311347631678E-05
  1.9550356314342949E-02  2.4546031881142957E-01  1.0666471510229714E-05
  1.9745130668444300E-02  2.4501728765626024E-01  1.0572376634290423E-05
  1.9941845501195012E-02  2.4459914726431262E-01  1.0479026472359883E-05
  2.0140520145003660E-02  2.4419942110885898E-01  1.0386421085826876E-05
  2.0341174124881775E-02  2.4374484791388853E-01  1.0294560719129300E-05
  2.0543827160362786E-02  2.4332378905199331E-01  1.0203445715418018E-05
  2.0748499167439909E-02  2.4284402995528373E-01  1.0113076425832379E-05
  2.0955210260523442E-02  2.4234057930507236E-01  1.0023452931946930E-05
  2.1163980754417562E-02  2.4185860421988575E-01  9.9345745381836421E-06
  2.1374831166316749E-02  2.4138704802921926E-01  9.8464392363165403E-06
  2.1587782217822152E-02  2.4105554545127991E-01  9.7590433822691101E-06
  2.1802854836978056E-02  2.4061966411991778E-01  9.6723816738491165E-06
  2.2020070160328566E-02  2.4016536715043396E-01  9.5864473628645834E-06
  2.2239449534994897E-02  2.3963761180396070E-01  9.5012325767337196E-06
  2.2461014520773190E-02  2.3919931359883373E-01  9.4167286472632005E-06
  2.2684786892253454E-02  2.3866441922118981E-01  9.3329263918915798E-06
  2.2910788640959381E-02  2.3825854643806349E-01  9.2498163330779946E-06
  2.3139041977509642E-02  2.3781425246310048E-01  9.1673888639210378E-06
  2.3369569333800692E-02  2.3734033050714040E-01  9.0856344079937457E-06
  2.3602393365211229E-02  2.3692425592204208E-01  9.0045437394887138E-06
  2.3837536952828711E-02  2.3651539168570371E-01  8.9241084641172311E-06
  2.4075023205698081E-02  2.3614368740768124E-01  8.8443214369052440E-06
  2.4314875463092720E-02  2.3568734244017767E-01  8.7651769367123214E-06
  2.4557117296808262E-02  2.3524421627882983E-01  8.6866705776317338E-06
  2.4801772513479051E-02  2.3477699130279991E-01  8.6087990546559396E-06
  2.5048865156917854E-02  2.3432878779364272E-01  8.5315598397719226E-06
  2.5298419510478728E-02  2.3389330007979364E-01  8.4549509073177706E-06
  2.5550460099443503E-02  2.3342530896894709E-01  8.3789705212067284E-06
  2.5805011693432127E-02  2.3301986220715123E-01  8.3036170843069522E-06
  2.6062099308836795E-02  2.3257715022559022E-01  8.2288890300133013E-06
  2.6321748211280561E-02  2.3213750237010888E-01  8.1547847123599668E-06
  2.6583983918100355E-02  2.3166198676330982E-01  8.0813021649126380E-06
  2.6848832200854655E-02  2.3121330929930595E-01  8.0084387417916667E-06
  2.7116319087856330E-02  2.3075313284873700E-01  7.9361908926481766E-06
  2.7386470866730472E-02  2.3031799361043717E-01  7.8645542187930471E-06
  2.7659314086997996E-02  2.2989341999601026E-01  7.7935237497713121E-06
  2.7934875562684713E-02  2.2948797151350173E-01  7.7230942840335652E-06
  2.8213182374956541E-02  2.2910356474550164E-01  7.6532606672261508E-06
  2.8494261874781018E-02  2.2866983654158946E-01  7.5840179625959363E-06
  2.8778141685615134E-02  2.2822645321035723E-01  7.5153615243746298E-06
  2.9064849706120128E-02  2.2776101072961974E-01  7.4472870054545357E-06
  2.9354414112903304E-02  2.2725886204289911E-01  7.3797903350676723E-06
  2.9646863363287011E-02  2.2679256706996978E-01  7.3128677037442897E-06
  2.9942226198105468E-02  2.2630359242424700E-01  7.2465156420062221E-06
  3.0240531644529157E-02  2.2588526493220024E-01  7.1807312008046332E-06
  3.0541809018917648E-02  2.2547254935606945E-01  7.1155120088230207E-06
  3.0846087929700582E-02  2.2503239900406569E-01  7.0508560555560433E-06
  3.1153398280287535E-02  2.2468491640040769E-01  6.9867612802794513E-06
  3.1463770272006863E-02  2.2425016651736754E-01  6.9232251519118550E-06
  3.1777234407073668E-02  2.2382674312045606E-01  6.8602443902708433E-06
  3.2093821491587522E-02  2.2339947113781963E-01  6.7978148694828308E-06
  3.2413562638559962E-02  2.2295979698207039E-01  6.7359316612147166E-06
  3.2736489270972141E-02  2.2249773707479534E-01  6.6745891565630030E-06
  3.3062633124863003E-02  2.2203846863111734E-01  6.6137812133928069E-06
  3.3392026252448123E-02  2.2163790100613029E-01  6.5535012912610714E-06
  3.3724701025269747E-02  2.2120435190325433E-01  6.4937425200921185E-06
  3.4060690137378107E-02  2.2074998727383463E-01  6.4344976798044726E-06
  3.4400026608544451E-02  2.2028744787821797E-01  6.3757592559367838E-06
  3.4742743787506192E-02  2.1984630933715846E-01  6.3175197295991674E-06
  3.5088875355244208E-02  2.1944462361669953E-01  6.2597720500415891E-06
  3.5438455328292887E-02  2.1901711216818953E-01  6.2025101112918319E-06
  3.5791518062083263E-02  2.1863846391407249E-01  6.1457290653261985E-06
  3.6148098254319180E-02  2.1823920328054786E-01  6.0894254069306213E-06
  3.6508230948387344E-02  2.1781724257998716E-01  6.0335968773732541E-06
  3.6871951536801270E-02  2.1732573742225467E-01  5.9782422668221772E-06
  3.7239295764679506E-02  2.1680340281443120E-01  5.9233611844901277E-06
  3.7610299733258502E-02  2.1631252995379430E-01  5.8689538422833987E-06
  3.7984999903440515E-02  2.1586764886570803E-01  5.8150208915960095E-06
  3.8363433099376940E-02  2.1547810819966098E-01  5.7615633606630600E-06
  3.8745636512087102E-02  2.1512348351703103E-01  5.7085826199258998E-06
  3.9131647703113351E-02  2.1475494844047574E-01  5.6560802249710489E-06
  3.9521504608212500E-02  2.1434869159322975E-01  5.6040575993524727E-06
  3.9915245541083930E-02  2.1393348502464929E-01  5.5525156473179951E-06
  4.0312909197134920E-02  2.1345170177754061E-01  5.5014544292667243E-06
  4.0714534657283565E-02  2.1299094169640415E-01  5.4508729980937829E-06
  4.1120161391799477E-02  2.1258286586073524E-01  5.4007693963211792E-06
  4.1529829264182715E-02  2.1216266347951801E-01  5.3511407631568748E-06
  4.1943578535081461E-02  2.1173130141453200E-01  5.3019834947980828E-06
  4.2361449866248777E-02  2.1130977808320814E-01  5.2532934136382384E-06
  4.2783484324538532E-02  2.1086379747656855E-01  5.2050659146070382E-06
  4.3209723385941382E-02  2.1044190525398457E-01  5.1572960318520510E-06
  4.3640208939660953E-02  2.1005212523489297E-01  5.1099784059470994E-06
  4.4074983292230405E-02  2.0962679863387901E-01  5.0631072477483888E-06
  4.4514089171670226E-02  2.0920528967633634E-01  5.0166763971827436E-06
  4.4957569731687477E-02  2.0875413563160153E-01  4.9706794956891421E-06
  4.5405468555916671E-02  2.0829816206334570E-01  4.9251102191553623E-06
  4.5857829662202990E-02  2.0790076628707940E-01  4.8799624847996336E-06
  4.6314697506928251E-02  2.0746860807933440E-01  4.8352305822101185E-06
  4.6776116989380008E-02  2.0704005901888267E-01  4.7909092253656015E-06
  4.7242133456163876E-02  2.0662067267925135E-01  4.7469935436374893E-06
  4.7712792705660159E-02  2.0619022830197470E-01  4.7034790381230615E-06
  4.8188140992524817E-02  2.0580365658322605E-01  4.6603615255536974E-06
  4.8668225032235043E-02  2.0542263435958194E-01  4.6176371045586576E-06
  4.9153092005680320E-02  2.0500029166044584E-01  4.5753021906623372E-06
  4.9642789563799326E-02  2.0455395170780766E-01  4.5333535861369818E-06
  5.0137365832262762E-02  2.0410003397621454E-01  4.4917885033651189E-06
  5.0636869416202955E-02  2.0364333251596045E-01  4.4506044953852248E-06
  5.1141349404990634E-02  2.0321728027483513E-01  4.4097993074601115E-06
  5.1650855377059324E-02  2.0277631149607769E-01  4.3693707066006729E-06
  5.2165437404777588E-02  2.0236235508716252E-01  4.3293163438340207E-06
  5.2685146059370004E-02  2.0196990109444640E-01  4.2896336713728413E-06
  5.3210032415887239E-02  2.0156273195792729E-01  4.2503199141133252E-06
  5.3740148058225322E-02  2.0118506717840828E-01  4.2113720799057502E-06
  5.4275545084195229E-02  2.0077928803045506E-01  4.1727869902923362E-06
  5.4816276110642902E-02  2.0039686989742436E-01  4.1345613172700319E-06
  5.5362394278620178E-02  1.9999636265681600E-01  4.0966916016252556E-06
  5.5913953258607235E-02  1.9955897864750619E-01  4.0591742605653499E-06
  5.6471007255787228E-02  1.9912600347219950E-01  4.0220056280707386E-06
  5.7033611015373402E-02  1.9866110502149290E-01  3.9851820543758589E-06
  5.7601819827989120E-02  1.9822597720870669E-01  3.9487000505241228E-06
  5.8175689535101688E-02  1.9778394653435463E-01  3.9125564325380141E-06
  5.8755276534510355E-02  1.9738382104660895E-01  3.8767484186825270E-06
  5.9340637785888661E-02  1.9698975565537263E-01  3.8412736640389205E-06
  5.9931830816382363E-02  1.9655817466231754E-01  3.8061302390408888E-06
  6.0528913726263026E-02  1.9615586852044448E-01  3.7713165713844690E-06
  6.1131945194637882E-02  1.9570161753890775E-01  3.7368313736261693E-06
  6.1740984485216387E-02  1.9528836663012966E-01  3.7026735688784473E-06
  6.2356091452134756E-02  1.9484503759822905E-01  3.6688422256679428E-06
  6.2977326545838083E-02  1.9442752683183814E-01  3.6353365142520332E-06
  6.3604750819021103E-02  1.9406215529112542E-01  3.6021556857227187E-06
  6.4238425932628240E-02  1.9371377072870269E-01  3.5692990651511142E-06
  6.4878414161913658E-02  1.9331856292701288E-01  3.5367660440428148E-06
  6.5524778402561074E-02  1.9293826813470777E-01  3.5045560636633478E-06
  6.6177582176865146E-02  1.9250861901369354E-01  3.4726685952958236E-06
  6.6836889639974181E-02  1.9207904499646666E-01  3.4411031203234906E-06
  6.7502765586195140E-02  1.9163473766886990E-01  3.4098591121192064E-06
  6.8175275455361034E-02  1.9120327483837701E-01  3.3789360227904685E-06
  6.8854485339262583E-02  1.9077668800593736E-01  3.3483332745409826E-06
  6.9540461988143246E-02  1.9035834370957830E-01  3.3180502542782035E-06
  7.0233272817259107E-02  1.8994850463205379E-01  3.2880863093373289E-06
  7.0932985913504248E-02  1.8953253884117399E-01  3.2584407800284321E-06
  7.1639670042102310E-02  1.8912657712131992E-01  3.2291131842937799E-06
  7.2353394653364128E-02  1.8874376651045049E-01  3.2001036409707279E-06
  7.3074229889513231E-02  1.8834707614256274E-01  3.1714134891800279E-06
  7.3802246591579218E-02  1.8793245274955167E-01  3.1430459444715268E-06
  7.4537516306359727E-02  1.8754348463564735E-01  3.1150065964567050E-06
  7.5280111293451510E-02  1.8713568057637425E-01  3.0873036167451434E-06
  7.6030104532352330E-02  1.8672459410259401E-01  3.0599476584081831E-06
  7.6787569729632799E-02  1.8629829715713170E-01  3.0329515212696909E-06
  7.7552581326179967E-02  1.8589578494747561E-01  3.0063296956698656E-06
  7.8325214504513227E-02  1.8547610685855082E-01  2.9800978863545932E-06
  7.9105545196173022E-02  1.8506598276750513E-01  2.9542725838151765E-06
  7.9893650089182866E-02  1.8460689647309442E-01  2.9288707065634428E-06
  8.0689606635586206E-02  1.8422804137568968E-01  2.9039092523933460E-06
  8.1493493059058064E-02  1.8384158888537930E-01  2.8794048881439438E-06
  8.2305388362592602E-02  1.8343876230456174E-01  2.8553734606998102E-06
  8.3125372336266934E-02  1.8304460265080869E-01  2.8318294759370954E-06
  8.3953525565083120E-02  1.8266777457599995E-01  2.8087856468074099E-06
  8.4789929436887429E-02  1.8227118776465367E-01  2.7862526413062663E-06
  8.5634666150368868E-02  1.8186909472635437E-01  2.7642390563715556E-06
  8.6487818723137336E-02  1.8140381029143382E-01  2.7427515865347833E-06
  8.7349470999882550E-02  1.8100796132438488E-01  2.7217953198203395E-06
  8.8219707660613642E-02  1.8059736804006152E-01  2.7013740834289775E-06
  8.9098614228981354E-02  1.8016090328702136E-01  2.6814907744916622E-06
  8.9986277080683075E-02  1.7979502650747445E-01  2.6621476539843271E-06
  9.0882783451951499E-02  1.7937427108407231E-01  2.6433467572621159E-06
  9.1788221448127524E-02  1.7903282705823520E-01  2.6250907088791938E-06
  9.2702680052319505E-02  1.7865350748554573E-01  2.6073840857068663E-06
  9.3626249134147854E-02  1.7823808871713184E-01  2.5902352046540327E-06
  9.4559019458577045E-02  1.7787023156855114E-01  2.5736579833907881E-06
  9.5501082694835718E-02  1.7745436836045000E-01  2.5576734057960124E-06
  9.6452531425425855E-02  1.7706216396117405E-01  2.5423102682401649E-06
  9.7413459155220997E-02  1.7667669453130419E-01  2.5276051384819232E-06
  9.8383960320655800E-02  1.7627606917192690E-01  2.5136016787583349E-06
  9.9364130299006995E-02  1.7587904306448912E-01  2.5003496057262099E-06
  1.0035406541776665E-01  1.7546817817699822E-01  2.4879035590338701E-06
  1.0135386296410852E-01  1.7510956987555065E-01  2.4763220831170173E-06
  1.0236362119444968E-01  1.7474711167877463E-01  2.4656667560811183E-06
  1.0338343934410647E-01  1.7437311836464284E-01  2.4560012648663108E-06
  1.0441341763704692E-01  1.7400155105863085E-01  2.4473902668377216E-06
  1.0545365729574048E-01  1.7364877915992277E-01  2.4398979866460924E-06
  1.0650426055110593E-01  1.7328167627481325E-01  2.4335866413006683E-06
  1.0756533065255798E-01  1.7294445116966928E-01  2.4285150500261579E-06
  1.0863697187815440E-01  1.7259420961310148E-01  2.4247378012917407E-06
  1.0971928954484422E-01  1.7224776815751078E-01  2.4223050948388258E-06
  1.1081239001881758E-01  1.7188006824441579E-01  2.4212632451759414E-06
  1.1191638072595914E-01  1.7152528283514881E-01  2.4216556783063765E-06
  1.1303137016240569E-01  1.7114172777144521E-01  2.4235241913904618E-06
  1.1415746790520856E-01  1.7076814683096156E-01  2.4269102727428466E-06
  1.1529478462310236E-01  1.7039032126918036E-01  2.4318562980349372E-06
  1.1644343208738120E-01  1.7002051961598899E-01  2.4384064402660678E-06
  1.1760352318288339E-01  1.6964161605472150E-01  2.4466070905032817E-06
  1.1877517191908492E-01  1.6933801028825526E-01  2.4565067117240569E-06
  1.1995849344130409E-01  1.6902041375445301E-01  2.4681552342703403E-06
  1.2115360404201772E-01  1.6872750210355303E-01  2.4816032114536641E-06
  1.2236062117228987E-01  1.6841889698661452E-01  2.4969009235458410E-06
  1.2357966345331403E-01  1.6812586285016157E-01  2.5140977576558707E-06
  1.2481085068807156E-01  1.6777372731694032E-01  2.5332420393715416E-06
  1.2605430387310512E-01  1.6746930057446305E-01  2.5543813204514851E-06
  1.2731014521040934E-01  1.6710983052801612E-01  2.5775630100278288E-06
  1.2857849811944114E-01  1.6680699589856054E-01  2.6028351891152417E-06
  1.2985948724924867E-01  1.6647341461500476E-01  2.6302474418480327E-06
  1.3115323849072080E-01  1.6613292907622779E-01  2.6598514888954980E-06
  1.3245987898896011E-01  1.6581924306088172E-01  2.6917012623382911E-06
  1.3377953715577787E-01  1.6550367436065039E-01  2.7258520644597981E-06
  1.3511234268231315E-01  1.6520186238486806E-01  2.7623586526977615E-06
  1.3645842655178014E-01  1.6487315319532428E-01  2.8012723687853799E-06
  1.3781792105233878E-01  1.6456308033503048E-01  2.8426375735079478E-06
  1.3919095979009635E-01  1.6426661679916840E-01  2.8864879918999013E-06
  1.4057767770223870E-01  1.6394977987692191E-01  2.9328436007194692E-06
  1.4197821107028949E-01  1.6362067407425654E-01  2.9817084493008519E-06
  1.4339269753350509E-01  1.6332005144567241E-01  3.0330694988293045E-06
  1.4482127610240056E-01  1.6300688494913670E-01  3.0868962919262706E-06
  1.4626408717241071E-01  1.6266125518180286E-01  3.1431410854761527E-06
  1.4772127253768860E-01  1.6234130002404260E-01  3.2017391399116505E-06
  1.4919297540503995E-01  1.6200680015964042E-01  3.2626091116082285E-06
  1.5067934040799671E-01  1.6170523782854337E-01  3.3256534844387728E-06
  1.5218051362103183E-01  1.6138560017710732E-01  3.3907592326309601E-06
  1.5369664257391460E-01  1.6107569137890085E-01  3.4577990771281155E-06
  1.5522787626620882E-01  1.6076772701684724E-01  3.5266331513765488E-06
  1.5677436518191687E-01  1.6045497394738298E-01  3.5971107362004175E-06
  1.5833626130426820E-01  1.6009486127501860E-01  3.6690718761406475E-06
  1.5991371813065527E-01  1.5980079479200446E-01  3.7423484672954196E-06
  1.6150689068771970E-01  1.5943339371664922E-01  3.8167645382010123E-06
  1.6311593554658710E-01  1.5908086128496446E-01  3.8921356780832392E-06
  1.6474101083825382E-01  1.5874113696897804E-01  3.9682677887101933E-06
  1.6638227626912913E-01  1.5838976711916256E-01  4.0449555256002412E-06
  1.6803989313672857E-01  1.5804650822517782E-01  4.1219808049344060E-06
  1.6971402434552652E-01  1.5770700925763331E-01  4.1991119810494891E-06
  1.7140483442296697E-01  1.5737754090842573E-01  4.2761042147866868E-06
  1.7311248953563046E-01  1.5703859232146267E-01  4.3527013419302357E-06
  1.7483715750556617E-01  1.5665367063568039E-01  4.4286394303970394E-06
  1.7657900782678418E-01  1.5634344460694544E-01  4.5036520308785354E-06
